660 1,660 2,660 3,660 4,660 5,660 6,660 7,660 8,660 9,660 10,660 11,660 12,940 1,940 2,940 3,940 4,940 5,940 6,940 7,940 8,940 9,940 10,940 11,940 12,850 1,850 2,850 3,850 4,850 5,850 6,850 7,850 8,850 9,850 10,850 11,850 12,pkt_counter,timestamp_iso
60421,74797,73125,69378,58700,66810,70040,59664,65829,76536,69093,59929,120078,151162,138860,164284,139511,141916,157597,137380,126682,169743,150482,142690,60962,74668,73695,85500,71101,73108,72102,59624,62025,76831,69978,61591,125,2025-11-17T10:46:17.041-06:00
60410,74788,73130,69404,58727,66821,70037,59680,65810,76559,69097,59922,120056,151125,138844,164268,139537,141915,157619,137376,126661,169722,150489,142656,60945,74651,73672,85532,71125,73117,72127,59630,62020,76812,69968,61587,125,2025-11-17T10:46:17.041-06:00
60395,74778,73119,69416,58746,66854,70064,59686,65834,76576,69072,59886,120015,151110,138877,164313,139534,141933,157642,137404,126718,169766,150434,142586,60946,74645,73693,85542,71119,73153,72128,59635,62014,76829,69953,61544,126,2025-11-17T10:46:17.101-06:00
60404,74825,73143,69424,58753,66898,70098,59691,65834,76562,69045,59860,120020,151176,138922,164287,139559,141963,157709,137469,126744,169789,150425,142508,60952,74678,73735,85579,71155,73169,72168,59629,62018,76788,69930,61527,126,2025-11-17T10:46:17.101-06:00
60430,74843,73155,69419,58756,66922,70120,59701,65847,76568,69057,59876,120045,151234,138973,164320,139591,141972,157739,137465,126754,169807,150483,142543,60973,74709,73756,85597,71177,73190,72166,59631,62016,76800,69952,61534,127,2025-11-17T10:46:17.216-06:00
60439,74870,73183,69426,58783,66922,70159,59706,65839,76582,69064,59872,120078,151270,138954,164354,139586,141961,157811,137510,126747,169840,150472,142520,60991,74735,73774,85622,71175,73203,72202,59648,62012,76816,69937,61527,127,2025-11-17T10:46:17.216-06:00
60456,74895,73199,69432,58785,66931,70144,59716,65850,76575,69050,59855,120073,151273,139011,164392,139644,141958,157809,137496,126776,169847,150453,142478,61006,74763,73797,85656,71217,73230,72220,59664,62007,76798,69928,61509,128,2025-11-17T10:46:17.255-06:00
60460,74883,73189,69446,58796,66914,70181,59721,65846,76589,69066,59873,120098,151264,139007,164374,139631,141989,157814,137566,126816,169806,150474,142545,61020,74781,73815,85658,71196,73241,72238,59672,62032,76803,69946,61530,128,2025-11-17T10:46:17.255-06:00
60463,74896,73205,69458,58783,66949,70175,59725,65858,76569,69054,59857,120119,151291,139044,164383,139587,142000,157839,137574,126826,169805,150439,142495,61014,74781,73825,85640,71208,73235,72228,59675,62033,76800,69926,61510,129,2025-11-17T10:46:17.310-06:00
60470,74889,73225,69469,58793,66960,70177,59723,65864,76576,69034,59831,120117,151303,139060,164367,139625,142007,157813,137596,126829,169815,150437,142445,61034,74808,73833,85662,71216,73248,72233,59671,62024,76800,69917,61486,129,2025-11-17T10:46:17.310-06:00
60465,74898,73224,69472,58812,66953,70195,59732,65859,76578,69033,59835,120092,151259,139096,164367,139620,142009,157878,137611,126874,169818,150441,142428,61036,74797,73842,85682,71237,73259,72254,59675,62037,76810,69913,61481,130,2025-11-17T10:46:17.409-06:00
60464,74915,73224,69465,58831,66977,70203,59741,65863,76584,69036,59828,120118,151300,139103,164399,139676,142029,157904,137624,126886,169832,150401,142394,61053,74808,73849,85687,71239,73260,72251,59681,62036,76799,69905,61474,130,2025-11-17T10:46:17.409-06:00
60483,74940,73252,69491,58837,66971,70222,59744,65869,76599,68993,59834,120128,151358,139153,164400,139665,142051,157905,137677,126927,169867,150433,142401,61064,74838,73854,85710,71262,73277,72274,59676,62060,76822,69890,61457,131,2025-11-17T10:46:17.458-06:00
60498,74956,73239,69492,58838,67011,70228,59745,65875,76592,69047,59817,120161,151381,139192,164387,139676,142046,157912,137660,126952,169879,150412,142370,61079,74852,73884,85733,71271,73298,72278,59706,62043,76817,69903,61466,131,2025-11-17T10:46:17.458-06:00
60506,74971,73265,69520,58853,67002,70240,59758,65893,76580,69028,59820,120182,151385,139176,164456,139688,142067,157936,137696,126971,169895,150418,142376,61091,74868,73892,85752,71291,73322,72292,59698,62058,76834,69916,61474,132,2025-11-17T10:46:17.521-06:00
60517,74973,73277,69511,58846,67031,70250,59759,65912,76597,69061,59843,120158,151397,139167,164411,139697,142045,157931,137759,127012,169901,150492,142447,61094,74883,73903,85734,71293,73311,72300,59709,62064,76834,69934,61504,132,2025-11-17T10:46:17.521-06:00
60534,74986,73279,69516,58846,67053,70261,59769,65903,76609,69060,59838,120215,151413,139178,164399,139683,142071,157913,137763,127038,169902,150459,142440,61118,74888,73919,85767,71296,73313,72302,59699,62083,76839,69939,61498,133,2025-11-17T10:46:17.580-06:00
60544,74989,73298,69531,58868,67070,70268,59774,65924,76619,69055,59816,120206,151406,139219,164456,139730,142071,157961,137816,127091,169932,150480,142392,61138,74910,73928,85801,71317,73330,72297,59719,62096,76861,69925,61470,133,2025-11-17T10:46:17.580-06:00
60543,75000,73303,69555,58877,67069,70284,59791,65927,76635,69095,59847,120232,151424,139240,164488,139731,142091,157976,137817,127152,169996,150517,142463,61131,74934,73940,85807,71326,73346,72331,59729,62104,76886,69963,61498,134,2025-11-17T10:46:17.728-06:00
60552,75018,73300,69539,58892,67069,70270,59795,65950,76627,69054,59813,120282,151429,139261,164474,139764,142111,158000,137845,127183,169982,150416,142343,61179,74951,73955,85820,71332,73353,72321,59732,62125,76886,69919,61458,134,2025-11-17T10:46:17.728-06:00
60574,75037,73318,69539,58893,67063,70308,59817,65969,76637,69078,59845,120262,151481,139261,164477,139782,142125,158027,137912,127228,170000,150483,142432,61170,74953,73977,85847,71356,73381,72349,59768,62143,76890,69962,61499,135,2025-11-17T10:46:17.760-06:00
60604,75054,73319,69552,58905,67082,70307,59832,65960,76637,69066,59834,120293,151484,139319,164483,139766,142170,158060,137952,127250,170001,150496,142418,61214,74986,73989,85838,71367,73382,72357,59770,62140,76877,69952,61484,135,2025-11-17T10:46:17.760-06:00
60572,75035,73327,69570,58890,67064,70310,59839,65971,76659,69138,59888,120250,151479,139294,164486,139749,142119,158057,138022,127297,170046,150574,142600,61194,74988,73972,85838,71351,73359,72376,59789,62199,76948,70012,61577,136,2025-11-17T10:46:17.796-06:00
60503,74913,73231,69494,58766,66841,70166,59804,65964,76675,69224,60037,120152,151245,139169,164421,139584,141939,157852,137912,127281,170078,150779,142956,61089,74806,73846,85660,71190,73141,72279,59762,62210,77031,70165,61730,136,2025-11-17T10:46:17.796-06:00
60391,74748,73090,69399,58672,66668,69971,59773,65932,76650,69252,60088,119984,150951,138959,164269,139452,141850,157561,137855,127250,170071,150788,143026,60928,74562,73618,85468,71038,72962,72071,59695,62198,77053,70210,61787,137,2025-11-17T10:46:17.849-06:00
60378,74732,73103,69385,58684,66724,69929,59732,65918,76659,69214,60032,119973,150920,138974,164253,139467,141887,157535,137819,127265,170042,150690,142923,60895,74561,73632,85473,71053,73005,72022,59668,62189,76979,70143,61739,137,2025-11-17T10:46:17.849-06:00
60412,74795,73167,69431,58737,66806,70008,59748,65933,76644,69168,59981,119992,151069,139080,164299,139550,141967,157649,137855,127270,170053,150659,142753,60957,74659,73739,85571,71113,73104,72076,59670,62145,77003,70100,61656,138,2025-11-17T10:46:17.946-06:00
60452,74866,73198,69464,58770,66863,70088,59744,65916,76643,69162,59961,120057,151166,139153,164376,139563,141999,157781,137858,127205,170013,150625,142725,61012,74737,73772,85639,71169,73135,72161,59676,62126,76949,70089,61657,138,2025-11-17T10:46:17.946-06:00
60442,74861,73191,69457,58743,66857,70080,59739,65898,76652,69151,59992,120068,151164,139115,164355,139524,141952,157753,137863,127227,170031,150685,142746,60998,74735,73767,85607,71124,73118,72144,59670,62103,76953,70099,61673,139,2025-11-17T10:46:18.025-06:00
60432,74845,73174,69445,58734,66820,70042,59699,65900,76637,69189,59975,120044,151079,139094,164304,139489,141915,157660,137808,127184,170028,150686,142756,60993,74692,73761,85577,71106,73097,72113,59637,62087,76951,70112,61654,139,2025-11-17T10:46:18.025-06:00
60452,74860,73204,69452,58750,66868,70060,59690,65904,76653,69178,59977,120069,151147,139143,164326,139552,141963,157710,137809,127191,170070,150681,142758,61014,74735,73794,85593,71146,73133,72119,59623,62067,76953,70109,61656,140,2025-11-17T10:46:18.067-06:00
60463,74881,73206,69446,58749,66879,70078,59678,65888,76648,69195,59974,120089,151178,139146,164324,139485,141958,157712,137767,127171,170052,150672,142779,61035,74762,73794,85612,71135,73111,72116,59605,62040,76934,70115,61661,140,2025-11-17T10:46:18.067-06:00
60462,74890,73184,69435,58723,66830,70053,59672,65886,76648,69220,59999,120062,151158,139105,164309,139480,141913,157704,137752,127189,170104,150768,142843,61031,74742,73780,85589,71106,73084,72097,59604,62050,76953,70136,61691,141,2025-11-17T10:46:18.156-06:00
60480,74861,73204,69436,58734,66857,70037,59667,65881,76646,69226,60006,120076,151157,139118,164287,139451,141917,157647,137761,127201,170083,150789,142854,61037,74758,73781,85573,71082,73100,72099,59593,62046,76966,70161,61702,141,2025-11-17T10:46:18.156-06:00
60480,74902,73231,69459,58742,66863,70036,59647,65889,76668,69210,59992,120102,151192,139135,164326,139489,141915,157662,137754,127203,170151,150771,142795,61064,74784,73819,85624,71131,73123,72080,59576,62021,76938,70117,61672,142,2025-11-17T10:46:18.218-06:00
60508,74949,73244,69477,58760,66913,70084,59658,65891,76662,69180,59964,120137,151256,139181,164331,139555,141951,157749,137792,127233,170092,150723,142702,61089,74812,73839,85656,71164,73153,72123,59580,62044,76922,70103,61641,142,2025-11-17T10:46:18.218-06:00
60515,74946,73265,69469,58761,66932,70118,59646,65865,76626,69158,59933,120152,151287,139188,164317,139536,141973,157763,137809,127208,170020,150664,142627,61096,74842,73871,85683,71176,73159,72139,59590,62013,76894,70072,61631,143,2025-11-17T10:46:18.274-06:00
60515,74955,73276,69495,58774,66922,70127,59667,65876,76631,69127,59888,120132,151271,139210,164350,139545,141976,157812,137835,127227,170038,150596,142527,61103,74857,73870,85720,71173,73165,72161,59611,62018,76881,70046,61573,143,2025-11-17T10:46:18.274-06:00
60509,74971,73290,69510,58792,66938,70132,59667,65888,76632,69125,59883,120124,151300,139204,164406,139555,141977,157811,137870,127220,170028,150555,142471,61100,74864,73892,85722,71188,73196,72173,59602,62008,76882,70024,61559,144,2025-11-17T10:46:18.329-06:00
60511,74963,73283,69506,58802,66964,70137,59668,65888,76631,69102,59861,120109,151290,139220,164385,139586,141988,157812,137856,127236,170000,150528,142436,61079,74860,73905,85708,71196,73193,72164,59604,62012,76869,70002,61532,144,2025-11-17T10:46:18.329-06:00
60516,74964,73294,69504,58790,66960,70152,59676,65884,76638,69107,59867,120115,151276,139220,164353,139559,141988,157798,137854,127268,170018,150506,142389,61087,74865,73913,85736,71204,73205,72170,59605,62012,76868,70001,61529,145,2025-11-17T10:46:18.418-06:00
60501,74971,73300,69504,58804,66967,70145,59658,65890,76629,69104,59841,120121,151266,139242,164415,139564,141965,157862,137888,127286,170038,150467,142368,61106,74885,73922,85747,71201,73212,72196,59608,62003,76856,69989,61518,145,2025-11-17T10:46:18.418-06:00
60490,74959,73302,69525,58792,66979,70136,59657,65876,76613,69080,59803,120091,151244,139226,164416,139546,141999,157825,137832,127268,169982,150411,142253,61077,74878,73927,85752,71222,73213,72176,59597,62018,76839,69946,61480,146,2025-11-17T10:46:18.484-06:00
60510,74996,73317,69534,58823,67005,70164,59664,65881,76632,69056,59799,120119,151291,139269,164401,139602,142020,157890,137900,127312,169967,150370,142212,61110,74891,73953,85767,71251,73234,72217,59609,62014,76841,69958,61461,146,2025-11-17T10:46:18.484-06:00
60513,74992,73329,69540,58828,66989,70168,59681,65881,76617,69091,59821,120137,151312,139277,164441,139612,142037,157870,137940,127296,169984,150428,142258,61102,74906,73947,85785,71239,73239,72212,59609,62005,76827,69961,61493,147,2025-11-17T10:46:18.542-06:00
60530,75012,73342,69544,58821,67003,70181,59696,65890,76594,69037,59785,120125,151316,139267,164452,139628,142072,157898,137939,127330,169952,150337,142145,61123,74928,73957,85800,71264,73257,72225,59622,62022,76831,69905,61429,147,2025-11-17T10:46:18.542-06:00
60525,75010,73353,69561,58826,67020,70195,59698,65893,76609,69033,59740,120137,151331,139297,164426,139642,142041,157910,137961,127372,169973,150325,142048,61127,74947,73992,85831,71280,73258,72237,59630,62036,76845,69904,61406,148,2025-11-17T10:46:18.628-06:00
60525,75021,73359,69557,58849,67037,70211,59685,65896,76612,69033,59751,120134,151319,139297,164457,139674,142084,157921,138026,127393,169930,150302,142068,61122,74940,74007,85835,71281,73285,72231,59653,62046,76823,69895,61409,148,2025-11-17T10:46:18.628-06:00
60535,75033,73367,69567,58863,67060,70220,59701,65912,76611,69022,59736,120141,151324,139292,164423,139663,142095,157956,138045,127436,169951,150272,142010,61143,74959,74003,85839,71281,73292,72251,59656,62054,76820,69893,61381,149,2025-11-17T10:46:18.659-06:00
60547,75037,73368,69576,58865,67027,70227,59731,65925,76616,68991,59715,120137,151368,139305,164469,139705,142104,157989,138032,127480,169952,150220,141945,61137,74964,74023,85863,71317,73295,72274,59650,62079,76824,69873,61377,149,2025-11-17T10:46:18.659-06:00
60529,75040,73361,69576,58861,67062,70217,59735,65925,76598,69005,59718,120115,151346,139312,164468,139716,142129,157989,138111,127500,169970,150242,141987,61143,74973,74017,85886,71308,73303,72261,59667,62063,76812,69874,61383,150,2025-11-17T10:46:18.780-06:00
60544,75038,73370,69593,58871,67014,70239,59754,65929,76597,68988,59702,120172,151384,139305,164469,139694,142172,157998,138121,127499,169921,150205,141899,61173,74988,74036,85860,71318,73305,72270,59684,62078,76812,69859,61349,150,2025-11-17T10:46:18.780-06:00
60538,75041,73389,69621,58908,67081,70233,59758,65953,76600,68962,59661,120176,151360,139349,164491,139734,142161,158034,138164,127567,169926,150140,141788,61153,74986,74066,85913,71365,73328,72287,59694,62102,76806,69829,61307,151,2025-11-17T10:46:18.810-06:00
60565,75057,73389,69600,58892,67078,70261,59780,65949,76598,68992,59695,120186,151383,139333,164478,139732,142209,158049,138204,127594,169944,150195,141886,61176,75020,74066,85912,71361,73344,72283,59714,62113,76825,69836,61353,151,2025-11-17T10:46:18.810-06:00
60575,75072,73397,69614,58898,67082,70275,59781,65939,76579,68994,59705,120217,151404,139326,164504,139722,142183,158086,138248,127594,169884,150191,141912,61207,75019,74081,85923,71355,73332,72310,59720,62103,76813,69849,61347,152,2025-11-17T10:46:18.869-06:00
60552,75070,73383,69615,58897,67022,70258,59784,65951,76614,69039,59738,120202,151380,139321,164501,139731,142151,158056,138232,127645,169953,150229,141977,61194,74996,74060,85914,71345,73313,72305,59728,62145,76870,69916,61401,152,2025-11-17T10:46:18.869-06:00
60439,74893,73279,69537,58753,66824,70078,59747,65954,76641,69125,59878,120037,151083,139153,164391,139561,142025,157814,138190,127637,169994,150422,142311,61019,74797,73897,85728,71191,73071,72178,59706,62183,76952,70054,61569,153,2025-11-17T10:46:18.930-06:00
60345,74730,73173,69471,58678,66683,69899,59708,65911,76628,69150,59921,119859,150800,138997,164233,139424,141940,157536,138104,127602,169950,150428,142398,60900,74583,73713,85530,71027,72911,72000,59649,62160,76947,70082,61605,153,2025-11-17T10:46:18.930-06:00
60334,74733,73167,69461,58700,66708,69892,59692,65912,76600,69057,59823,119847,150805,139012,164231,139446,141962,157510,138127,127643,169944,150266,142128,60865,74582,73739,85571,71066,72985,71966,59626,62152,76900,69980,61502,154,2025-11-17T10:46:19.024-06:00
60389,74827,73245,69503,58774,66848,69987,59712,65921,76587,69019,59756,119942,151020,139117,164321,139536,142064,157764,138186,127644,169887,150158,141975,60947,74714,73849,85675,71165,73094,72067,59653,62129,76850,69923,61433,154,2025-11-17T10:46:19.024-06:00
60418,74892,73288,69515,58808,66890,70055,59706,65888,76574,69015,59765,119978,151100,139176,164381,139601,142117,157839,138218,127635,169912,150155,141961,60988,74765,73897,85727,71205,73130,72110,59674,62101,76843,69909,61427,155,2025-11-17T10:46:19.104-06:00
60401,74863,73255,69512,58758,66816,70043,59699,65902,76589,69022,59756,119973,151039,139120,164328,139569,142105,157819,138218,127622,169902,150168,141946,60977,74763,73867,85684,71165,73097,72101,59631,62095,76841,69918,61423,155,2025-11-17T10:46:19.104-06:00
60399,74851,73257,69500,58749,66829,70022,59688,65881,76606,69071,59786,119938,151015,139119,164302,139518,142072,157758,138153,127586,169962,150240,142026,60960,74740,73850,85689,71152,73056,72070,59613,62061,76860,69952,61458,156,2025-11-17T10:46:19.180-06:00
60432,74890,73268,69504,58731,66833,70008,59665,65918,76631,69101,59802,119986,151129,139154,164253,139490,142100,157799,138158,127578,170057,150370,142113,61005,74780,73888,85673,71107,73055,72074,59608,62062,76915,70013,61492,156,2025-11-17T10:46:19.180-06:00
60453,74892,73277,69472,58710,66822,70013,59650,65906,76633,69131,59831,120008,151098,139146,164216,139458,142076,157771,138095,127583,170082,150423,142180,61023,74788,73876,85647,71070,73029,72048,59580,62057,76929,70039,61517,157,2025-11-17T10:46:19.204-06:00
60435,74868,73254,69471,58694,66806,69967,59637,65905,76655,69136,59857,120021,151053,139111,164206,139430,142091,157708,138051,127573,170071,150469,142240,61016,74767,73859,85631,71047,72985,72010,59568,62037,76921,70055,61531,157,2025-11-17T10:46:19.204-06:00
60435,74874,73265,69467,58692,66804,69974,59627,65879,76647,69103,59812,120006,151028,139096,164199,139426,142073,157694,138047,127522,170041,150386,142113,61007,74767,73864,85633,71071,73026,71998,59554,62030,76885,70016,61485,158,2025-11-17T10:46:19.289-06:00
60434,74909,73283,69497,58724,66847,70013,59638,65875,76609,69081,59776,119977,151068,139116,164253,139468,142093,157789,138088,127564,169999,150316,142077,60995,74780,73895,85665,71110,73045,72037,59554,62000,76853,69967,61451,158,2025-11-17T10:46:19.289-06:00
60423,74916,73297,69501,58750,66888,70029,59627,65872,76588,69055,59741,119965,151079,139152,164254,139537,142103,157842,138071,127509,169930,150279,141990,60992,74797,73921,85710,71134,73084,72061,59547,61965,76810,69943,61425,159,2025-11-17T10:46:19.350-06:00
60445,74932,73327,69514,58753,66880,70061,59642,65859,76597,69044,59742,119991,151089,139137,164290,139565,142168,157904,138121,127538,169964,150248,141951,61011,74847,73939,85722,71156,73121,72096,59557,61982,76789,69904,61407,159,2025-11-17T10:46:19.350-06:00
60429,74944,73333,69552,58771,66900,70075,59636,65853,76587,69037,59736,119977,151129,139169,164283,139571,142149,157910,138155,127553,169943,150240,141915,61004,74859,73961,85756,71184,73131,72099,59560,61975,76781,69900,61389,160,2025-11-17T10:46:19.412-06:00
60440,74949,73352,69541,58784,66942,70105,59636,65863,76594,69049,59743,119982,151111,139178,164317,139600,142188,157959,138158,127543,169929,150237,141987,61017,74862,73965,85769,71179,73141,72127,59553,61979,76773,69902,61414,160,2025-11-17T10:46:19.412-06:00
60453,74965,73359,69536,58791,66941,70100,59641,65853,76598,69069,59786,120002,151131,139195,164285,139615,142174,157971,138202,127588,169952,150340,142061,61033,74860,73970,85789,71195,73134,72120,59579,61991,76782,69943,61438,161,2025-11-17T10:46:19.527-06:00
60474,74971,73350,69550,58795,66949,70114,59657,65863,76629,69103,59790,120061,151172,139182,164298,139618,142218,158008,138211,127615,170009,150397,142116,61067,74890,73995,85783,71198,73154,72120,59587,61993,76810,69980,61463,161,2025-11-17T10:46:19.527-06:00
60493,74994,73377,69548,58799,66941,70113,59657,65886,76619,69089,59800,120079,151178,139208,164340,139620,142211,158010,138221,127642,169969,150313,142142,61085,74911,74007,85789,71194,73157,72116,59584,61992,76810,69965,61468,162,2025-11-17T10:46:19.587-06:00
60510,75014,73384,69557,58796,66936,70113,59659,65861,76639,69136,59831,120128,151221,139186,164340,139652,142220,158027,138246,127629,170033,150470,142230,61120,74928,74010,85801,71204,73165,72138,59583,61973,76819,70003,61511,162,2025-11-17T10:46:19.587-06:00
60532,75031,73390,69565,58807,66979,70119,59660,65865,76627,69129,59826,120132,151246,139182,164346,139648,142290,158043,138253,127638,169997,150491,142241,61118,74964,74026,85813,71221,73172,72135,59576,61968,76818,70005,61499,163,2025-11-17T10:46:19.655-06:00
60555,75050,73398,69581,58820,66990,70124,59659,65894,76648,69143,59838,120191,151258,139211,164340,139662,142273,158059,138264,127675,170072,150515,142251,61157,74977,74042,85803,71220,73178,72126,59589,61991,76833,70008,61478,163,2025-11-17T10:46:19.655-06:00
60561,75043,73403,69559,58812,66975,70151,59663,65895,76668,69145,59841,120204,151313,139201,164310,139651,142280,158095,138293,127712,170087,150551,142285,61176,74989,74056,85812,71225,73189,72145,59583,61992,76850,70035,61516,164,2025-11-17T10:46:19.686-06:00
60554,75062,73408,69557,58827,67015,70158,59668,65877,76638,69150,59831,120228,151287,139210,164344,139678,142303,158087,138279,127703,170014,150538,142273,61183,74995,74071,85835,71242,73189,72153,59588,62010,76818,70010,61508,164,2025-11-17T10:46:19.686-06:00
60562,75057,73431,69590,58834,67004,70154,59678,65903,76653,69149,59837,120232,151311,139227,164356,139687,142325,158107,138308,127731,170063,150535,142237,61205,75000,74089,85863,71261,73211,72159,59589,62002,76822,70016,61492,165,2025-11-17T10:46:19.770-06:00
60576,75096,73440,69587,58840,66977,70161,59683,65910,76655,69168,59841,120236,151320,139204,164314,139707,142331,158129,138331,127757,170101,150591,142297,61200,75021,74082,85864,71257,73214,72175,59608,62019,76849,70031,61524,165,2025-11-17T10:46:19.770-06:00
60589,75089,73436,69587,58845,67032,70151,59680,65908,76663,69135,59784,120251,151345,139198,164344,139738,142343,158154,138365,127760,170086,150414,142183,61224,75025,74096,85870,71264,73216,72182,59601,62025,76836,69993,61484,166,2025-11-17T10:46:19.836-06:00
60593,75110,73443,69589,58845,67022,70194,59693,65919,76680,69164,59851,120299,151333,139227,164356,139728,142370,158207,138404,127810,170113,150573,142326,61234,75050,74104,85883,71255,73228,72189,59630,62037,76856,70029,61510,166,2025-11-17T10:46:19.836-06:00
60598,75114,73453,69611,58849,67017,70191,59702,65921,76659,69167,59846,120272,151343,139254,164316,139750,142346,158199,138439,127803,170103,150584,142338,61231,75069,74133,85879,71279,73237,72206,59620,62032,76857,70019,61523,167,2025-11-17T10:46:19.889-06:00
60607,75101,73436,69591,58841,66992,70169,59701,65915,76692,69245,59928,120288,151338,139209,164348,139707,142364,158181,138385,127816,170104,150733,142530,61243,75055,74111,85852,71254,73197,72199,59610,62041,76889,70122,61620,167,2025-11-17T10:46:19.889-06:00
60536,74994,73325,69525,58724,66805,70057,59664,65901,76721,69377,60098,120218,151142,139053,164171,139592,142192,158019,138336,127785,170228,150993,142958,61155,74913,73948,85688,71099,72989,72089,59581,62039,76985,70297,61799,168,2025-11-17T10:46:19.963-06:00
60440,74814,73223,69429,58593,66640,69828,59565,65873,76699,69403,60144,120026,150806,138879,164101,139392,142090,157622,138154,127712,170199,151022,143027,60984,74663,73757,85498,70925,72801,71879,59489,62000,77002,70320,61839,168,2025-11-17T10:46:19.963-06:00
60411,74785,73214,69407,58602,66646,69773,59527,65834,76691,69379,60114,119980,150803,138856,164056,139355,142090,157561,138074,127655,170182,151008,142990,60937,74619,73739,85502,70914,72805,71803,59432,61960,76960,70300,61826,169,2025-11-17T10:46:20.071-06:00
60464,74883,73261,69434,58651,66723,69850,59526,65852,76713,69332,60066,120087,150929,138933,164060,139452,142174,157715,138077,127662,170221,150947,142900,61034,74730,73821,85558,70987,72899,71867,59443,61943,76942,70263,61751,169,2025-11-17T10:46:20.071-06:00
60494,74949,73298,69466,58687,66779,69905,59537,65845,76675,69305,59994,120147,151023,138989,164134,139457,142218,157825,138107,127643,170174,150821,142784,61079,74805,73882,85616,71026,72941,71912,59441,61912,76905,70202,61715,170,2025-11-17T10:46:20.115-06:00
60494,74929,73301,69474,58661,66777,69912,59521,65825,76706,69359,60072,120123,151012,138957,164132,139487,142167,157818,138093,127638,170193,151008,142899,61063,74786,73871,85607,71002,72895,71919,59424,61925,76919,70251,61760,170,2025-11-17T10:46:20.115-06:00
60482,74911,73267,69428,58656,66753,69872,59512,65821,76701,69351,60076,120081,150980,138948,164081,139421,142179,157785,138098,127598,170210,151008,142917,61050,74744,73836,85562,70961,72893,71882,59424,61875,76886,70244,61770,171,2025-11-17T10:46:20.161-06:00
60521,74941,73290,69448,58663,66763,69884,59501,65824,76708,69372,60096,120174,151025,138967,164109,139483,142220,157824,138052,127618,170243,151110,143023,61089,74814,73873,85593,70984,72907,71909,59410,61871,76914,70285,61783,171,2025-11-17T10:46:20.161-06:00
60538,74957,73305,69443,58663,66775,69897,59467,65807,76700,69380,60107,120230,151071,138943,164068,139476,142240,157838,138050,127608,170225,151085,143016,61117,74845,73877,85569,70991,72906,71887,59396,61862,76889,70259,61781,172,2025-11-17T10:46:20.222-06:00
60535,74963,73296,69428,58638,66741,69885,59472,65815,76718,69428,60117,120233,151047,138970,164062,139457,142227,157781,138026,127603,170279,151150,143104,61125,74831,73853,85562,70952,72884,71873,59384,61846,76928,70310,61831,172,2025-11-17T10:46:20.222-06:00
60557,74956,73277,69417,58631,66753,69847,59446,65801,76716,69421,60126,120221,151062,138951,164047,139445,142216,157771,138028,127602,170267,151193,143137,61125,74841,73853,85563,70945,72894,71860,59373,61851,76907,70299,61821,173,2025-11-17T10:46:20.311-06:00
60574,74955,73292,69454,58652,66783,69879,59460,65823,76719,69406,60098,120278,151094,138989,164064,139482,142231,157837,138051,127643,170274,151147,143029,61158,74848,73874,85581,70973,72903,71881,59379,61844,76906,70282,61784,173,2025-11-17T10:46:20.311-06:00
60566,74980,73329,69470,58694,66826,69909,59454,65818,76716,69342,60042,120278,151156,139051,164111,139551,142299,157909,138058,127656,170254,150949,142868,61167,74898,73905,85621,71013,72959,71888,59376,61844,76878,70224,61720,174,2025-11-17T10:46:20.372-06:00
60579,75014,73347,69472,58703,66836,69945,59470,65810,76704,69338,60040,120285,151158,139064,164121,139566,142317,157939,138136,127690,170280,151050,142872,61161,74902,73930,85642,71047,72993,71921,59388,61849,76884,70227,61704,174,2025-11-17T10:46:20.372-06:00
60564,75031,73341,69466,58701,66879,69982,59500,65830,76703,69313,60019,120276,151169,139089,164128,139584,142337,158019,138147,127664,170234,151007,142782,61172,74899,73931,85664,71047,73001,71954,59400,61848,76850,70190,61684,175,2025-11-17T10:46:20.431-06:00
60573,75033,73364,69505,58728,66870,69989,59509,65825,76688,69280,59958,120289,151214,139075,164215,139655,142375,158044,138199,127703,170232,150905,142675,61174,74932,73972,85682,71083,73039,71962,59421,61853,76841,70146,61635,175,2025-11-17T10:46:20.431-06:00
60551,75029,73369,69502,58721,66896,70016,59513,65824,76692,69277,59973,120289,151212,139124,164202,139636,142392,158085,138215,127668,170200,150897,142659,61154,74935,73968,85686,71092,73033,71978,59429,61869,76834,70136,61640,176,2025-11-17T10:46:20.520-06:00
60553,75018,73361,69500,58732,66907,70016,59528,65827,76687,69246,59948,120242,151165,139097,164189,139642,142401,158112,138240,127695,170172,150905,142607,61145,74913,73966,85694,71076,73039,72008,59435,61849,76802,70124,61617,176,2025-11-17T10:46:20.520-06:00
60553,75023,73387,69515,58731,66917,70021,59520,65853,76697,69266,59957,120244,151183,139139,164216,139685,142393,158118,138233,127710,170227,150862,142606,61139,74929,73986,85718,71099,73055,72006,59436,61876,76838,70133,61617,177,2025-11-17T10:46:20.592-06:00
60553,75024,73400,69525,58761,66940,70041,59544,65849,76703,69258,59941,120240,151237,139154,164222,139701,142408,158132,138298,127738,170244,150822,142544,61137,74937,73992,85723,71117,73070,72020,59457,61876,76841,70117,61599,177,2025-11-17T10:46:20.592-06:00
60565,75036,73383,69536,58759,66941,70052,59545,65831,76693,69244,59922,120243,151221,139194,164247,139733,142449,158192,138300,127718,170235,150798,142538,61139,74947,73991,85764,71122,73068,72030,59451,61869,76826,70092,61587,178,2025-11-17T10:46:20.645-06:00
60561,75043,73403,69539,58750,66924,70083,59564,65840,76695,69256,59946,120276,151213,139218,164242,139706,142442,158201,138318,127756,170226,150858,142594,61165,74952,74013,85765,71133,73088,72048,59466,61879,76868,70118,61619,178,2025-11-17T10:46:20.645-06:00
60581,75057,73421,69547,58763,66961,70078,59564,65842,76699,69247,59940,120300,151271,139181,164263,139748,142464,158219,138341,127775,170228,150822,142547,61177,74975,74015,85763,71146,73090,72059,59475,61875,76821,70099,61591,179,2025-11-17T10:46:20.739-06:00
60613,75088,73423,69540,58773,66960,70098,59573,65847,76699,69263,59941,120325,151297,139236,164291,139771,142493,158270,138384,127806,170222,150845,142588,61202,74989,74029,85786,71149,73107,72063,59479,61894,76819,70093,61599,179,2025-11-17T10:46:20.739-06:00
60595,75074,73437,69569,58776,66981,70099,59591,65870,76698,69269,59936,120322,151324,139248,164307,139778,142524,158220,138406,127827,170275,150884,142593,61214,74995,74049,85794,71140,73111,72082,59488,61918,76856,70107,61608,180,2025-11-17T10:46:20.791-06:00
60622,75104,73426,69560,58792,66957,70115,59597,65865,76681,69274,59962,120390,151334,139265,164294,139799,142557,158275,138429,127878,170295,150901,142669,61239,75021,74048,85793,71164,73142,72090,59492,61922,76858,70123,61619,180,2025-11-17T10:46:20.791-06:00
60619,75094,73442,69561,58810,66977,70123,59591,65875,76700,69234,59921,120378,151346,139252,164313,139839,142578,158275,138455,127902,170241,150826,142527,61241,75029,74057,85795,71192,73145,72092,59509,61952,76855,70087,61584,181,2025-11-17T10:46:20.849-06:00
60630,75114,73444,69584,58816,67018,70142,59638,65898,76709,69261,59941,120387,151385,139295,164350,139872,142588,158374,138536,127936,170301,150882,142593,61246,75055,74074,85826,71201,73154,72123,59528,61964,76884,70104,61598,181,2025-11-17T10:46:20.849-06:00
60629,75128,73446,69572,58806,67006,70151,59644,65873,76698,69263,59946,120408,151368,139280,164324,139895,142619,158357,138548,127948,170233,150866,142588,61264,75039,74079,85836,71198,73159,72129,59540,61961,76850,70105,61591,182,2025-11-17T10:46:20.914-06:00
60635,75121,73418,69560,58782,66960,70147,59645,65908,76732,69327,59999,120422,151359,139249,164316,139886,142587,158321,138545,127978,170331,150977,142793,61271,75035,74067,85812,71172,73125,72127,59546,62007,76924,70188,61685,182,2025-11-17T10:46:20.914-06:00
60527,74943,73313,69466,58667,66741,69980,59626,65889,76726,69412,60144,120246,151077,139121,164184,139665,142442,158121,138496,127979,170345,151096,143097,61121,74832,73870,85613,71003,72905,72003,59530,62015,77002,70316,61830,183,2025-11-17T10:46:20.994-06:00
60430,74790,73175,69395,58573,66599,69779,59558,65853,76719,69450,60207,120120,150804,138925,164072,139572,142381,157797,138368,127914,170302,151196,143251,60987,74612,73696,85431,70866,72748,71811,59459,62000,77004,70374,61892,183,2025-11-17T10:46:20.994-06:00
60425,74753,73179,69370,58580,66659,69770,59548,65844,76709,69408,60154,120150,150811,138915,164029,139577,142420,157827,138364,127898,170304,151113,143185,60978,74601,73693,85423,70867,72763,71778,59434,61979,76987,70317,61852,184,2025-11-17T10:46:21.035-06:00
60495,74847,73217,69406,58627,66719,69834,59527,65836,76707,69373,60098,120274,150985,139001,164060,139654,142490,157966,138399,127921,170265,151116,143013,61083,74741,73778,85499,70937,72855,71840,59447,61953,76942,70281,61787,184,2025-11-17T10:46:21.035-06:00
60532,74911,73231,69410,58635,66763,69870,59505,65821,76703,69406,60126,120335,151086,139010,164124,139658,142536,157964,138365,127898,170292,151169,143134,61130,74785,73800,85523,70939,72864,71864,59439,61905,76933,70293,61809,185,2025-11-17T10:46:21.120-06:00
60546,74900,73227,69392,58603,66720,69842,59495,65805,76696,69433,60160,120382,151043,138996,164071,139615,142500,157960,138347,127837,170270,151258,143225,61140,74764,73769,85475,70902,72829,71850,59421,61903,76920,70331,61846,185,2025-11-17T10:46:21.120-06:00
60538,74875,73205,69395,58600,66723,69829,59471,65773,76703,69410,60140,120349,151052,138975,164078,139635,142503,157919,138297,127810,170251,151199,143196,61109,74739,73755,85471,70892,72812,71836,59395,61869,76885,70314,61837,186,2025-11-17T10:46:21.187-06:00
60538,74909,73227,69400,58627,66737,69845,59467,65779,76691,69382,60105,120365,151104,139047,164069,139685,142525,158004,138297,127831,170258,151149,143076,61131,74786,73798,85510,70934,72860,71856,59382,61848,76885,70270,61791,186,2025-11-17T10:46:21.187-06:00
60540,74919,73238,69408,58616,66761,69872,59472,65790,76682,69397,60096,120352,151100,139062,164079,139678,142515,158015,138301,127793,170260,151134,143094,61135,74774,73803,85511,70923,72855,71863,59382,61853,76872,70257,61771,187,2025-11-17T10:46:21.302-06:00
60529,74896,73215,69385,58615,66739,69858,59459,65782,76689,69400,60121,120331,151076,139012,164085,139678,142505,157992,138293,127811,170275,151181,143107,61104,74743,73759,85486,70908,72849,71857,59394,61845,76894,70278,61798,187,2025-11-17T10:46:21.302-06:00
60514,74881,73212,69406,58619,66748,69870,59479,65786,76683,69348,60071,120329,151094,139022,164109,139706,142520,158038,138321,127827,170254,151097,143009,61093,74731,73767,85487,70939,72870,71869,59400,61862,76874,70215,61747,188,2025-11-17T10:46:21.362-06:00
60525,74927,73245,69414,58650,66800,69898,59487,65811,76708,69347,60056,120316,151101,139062,164144,139749,142583,158088,138325,127866,170309,151100,142955,61097,74766,73796,85529,70957,72905,71880,59406,61862,76878,70211,61731,188,2025-11-17T10:46:21.362-06:00
60532,74929,73256,69427,58659,66847,69915,59499,65799,76691,69329,59997,120343,151150,139108,164170,139764,142636,158114,138357,127859,170318,150951,142841,61101,74774,73831,85537,70971,72934,71907,59395,61852,76862,70194,61697,189,2025-11-17T10:46:21.416-06:00
60531,74941,73281,69444,58680,66866,69961,59517,65794,76695,69308,60014,120350,151212,139124,164232,139852,142674,158219,138389,127878,170251,151053,142857,61113,74808,73839,85594,71000,72973,71956,59415,61854,76852,70183,61671,189,2025-11-17T10:46:21.416-06:00
60528,74955,73297,69461,58697,66880,69977,59514,65811,76690,69283,59984,120380,151249,139186,164197,139841,142647,158223,138443,127900,170307,150951,142747,61125,74816,73862,85607,71015,72975,71959,59418,61858,76858,70126,61645,190,2025-11-17T10:46:21.477-06:00
60524,74959,73297,69471,58699,66890,70007,59532,65816,76686,69270,59977,120330,151278,139167,164325,139883,142670,158269,138423,127898,170266,150956,142753,61104,74810,73869,85615,71050,73016,71994,59433,61871,76855,70144,61649,190,2025-11-17T10:46:21.477-06:00
60516,74963,73299,69461,58696,66894,70013,59540,65800,76679,69274,59981,120362,151223,139166,164275,139872,142678,158278,138433,127901,170268,150961,142738,61091,74827,73868,85634,71038,73023,71990,59438,61870,76840,70127,61641,191,2025-11-17T10:46:21.516-06:00
60501,74948,73305,69490,58709,66914,70033,59537,65816,76683,69287,59979,120309,151228,139162,164304,139941,142697,158299,138465,127914,170300,150973,142765,61080,74804,73867,85639,71046,73022,72006,59448,61873,76867,70140,61646,191,2025-11-17T10:46:21.516-06:00
60506,74954,73284,69485,58710,66915,70036,59538,65819,76703,69266,59978,120339,151254,139182,164307,139950,142686,158301,138427,127896,170291,150979,142749,61085,74818,73877,85650,71054,73024,72016,59440,61870,76862,70130,61633,192,2025-11-17T10:46:21.599-06:00
60515,74960,73314,69503,58738,66920,70042,59540,65832,76711,69269,59982,120331,151248,139207,164320,139963,142709,158317,138471,127929,170325,150983,142728,61082,74827,73905,85651,71070,73035,72015,59449,61879,76875,70128,61637,192,2025-11-17T10:46:21.599-06:00
60523,74966,73312,69488,58738,66916,70054,59537,65837,76695,69274,59931,120365,151329,139209,164355,139981,142772,158314,138474,127933,170360,150916,142667,61112,74855,73896,85672,71088,73053,72023,59443,61876,76884,70131,61624,193,2025-11-17T10:46:21.690-06:00
60531,74969,73322,69494,58757,66969,70074,59558,65838,76697,69271,59961,120368,151309,139204,164356,140047,142768,158374,138494,127934,170379,150953,142701,61106,74849,73900,85682,71112,73082,72049,59447,61885,76864,70130,61623,193,2025-11-17T10:46:21.690-06:00
60549,75003,73328,69516,58756,66972,70076,59556,65843,76704,69267,59957,120400,151368,139244,164362,140035,142788,158394,138486,127953,170351,151006,142741,61130,74887,73910,85695,71112,73099,72056,59472,61890,76875,70127,61634,194,2025-11-17T10:46:21.718-06:00
60542,74989,73328,69515,58754,66943,70081,59580,65853,76718,69308,60003,120422,151362,139234,164410,140049,142798,158347,138504,127970,170401,151046,142823,61138,74869,73927,85697,71119,73089,72063,59471,61908,76892,70171,61664,194,2025-11-17T10:46:21.718-06:00
60522,74937,73280,69480,58693,66828,70024,59552,65838,76711,69367,60078,120357,151269,139157,164312,139919,142710,158260,138443,127931,170373,151131,143055,61081,74800,73839,85610,71019,72975,72025,59463,61898,76937,70249,61757,195,2025-11-17T10:46:21.786-06:00
60405,74755,73138,69391,58579,66617,69843,59516,65812,76711,69416,60183,120215,150935,138935,164168,139782,142576,158027,138329,127908,170393,151303,143300,60925,74564,73636,85399,70866,72746,71853,59407,61903,76994,70337,61881,195,2025-11-17T10:46:21.786-06:00
60336,74653,73069,69338,58540,66607,69748,59478,65801,76723,69407,60159,120120,150772,138838,164091,139752,142569,157815,138265,127883,170396,151237,143253,60820,74436,73526,85312,70817,72696,71746,59359,61897,76974,70309,61860,196,2025-11-17T10:46:21.869-06:00
60365,74694,73108,69364,58577,66688,69777,59466,65800,76724,69379,60123,120173,150897,138893,164181,139820,142625,157919,138289,127903,170363,151188,143142,60860,74493,73588,85352,70851,72782,71781,59367,61874,76945,70275,61807,196,2025-11-17T10:46:21.869-06:00
60394,74762,73127,69383,58609,66750,69839,59478,65803,76712,69334,60075,120251,151040,138994,164202,139876,142670,158054,138318,127865,170417,151170,143015,60904,74563,73635,85413,70890,72822,71830,59382,61854,76930,70261,61776,197,2025-11-17T10:46:21.959-06:00
60404,74756,73125,69370,58594,66743,69862,59473,65795,76703,69355,60110,120261,151035,139002,164232,139893,142670,158067,138298,127876,170371,151146,143140,60927,74567,73649,85423,70885,72833,71854,59367,61850,76938,70240,61785,197,2025-11-17T10:46:21.959-06:00
60399,74744,73122,69366,58591,66703,69863,59474,65789,76710,69362,60113,120239,151028,138982,164211,139885,142668,158017,138280,127852,170411,151215,143125,60903,74545,73602,85382,70882,72814,71834,59365,61827,76930,70259,61788,198,2025-11-17T10:46:21.991-06:00
60396,74777,73143,69378,58627,66800,69886,59457,65802,76730,69361,60076,120287,151126,139039,164262,139946,142708,158030,138246,127850,170441,151183,143057,60924,74589,73664,85451,70935,72881,71854,59356,61812,76907,70244,61751,198,2025-11-17T10:46:21.991-06:00
60440,74811,73156,69405,58631,66784,69923,59459,65797,76714,69364,60078,120329,151174,139058,164305,139953,142714,158111,138264,127838,170473,151165,143058,60948,74623,73676,85463,70930,72887,71892,59355,61800,76916,70220,61757,199,2025-11-17T10:46:22.052-06:00
60410,74776,73133,69390,58619,66803,69895,59451,65764,76718,69364,60085,120325,151139,139051,164283,139961,142709,158103,138221,127811,170389,151234,143113,60928,74603,73662,85433,70913,72861,71871,59340,61794,76892,70251,61772,199,2025-11-17T10:46:22.052-06:00
60394,74772,73125,69377,58611,66798,69872,59452,65771,76719,69344,60069,120296,151157,139019,164294,139944,142718,158058,138181,127790,170416,151200,143085,60922,74581,73625,85425,70903,72869,71868,59326,61787,76890,70239,61748,200,2025-11-17T10:46:22.167-06:00
60399,74792,73129,69370,58643,66822,69905,59439,65787,76724,69310,60025,120304,151201,139012,164297,139988,142738,158103,138178,127810,170443,151123,142943,60914,74601,73643,85444,70920,72899,71864,59331,61792,76914,70196,61709,200,2025-11-17T10:46:22.167-06:00
60424,74810,73154,69397,58651,66868,69922,59439,65786,76719,69312,60022,120342,151256,138471,164361,140027,142754,158140,138188,127790,170406,151096,142919,60925,74626,73681,85478,70958,72925,71889,59343,61775,76874,70195,61701,201,2025-11-17T10:46:22.228-06:00
60440,74830,73175,69405,58660,66862,69958,59459,65773,76720,69300,60002,120397,151296,138397,164363,140058,142767,158134,138211,127812,170413,151078,142874,60970,74648,73691,85488,70967,72946,71913,59353,61783,76868,70170,61662,201,2025-11-17T10:46:22.228-06:00
60440,74841,73167,69414,58673,66899,69990,59456,65777,76725,69283,59991,120410,151328,138446,164389,140074,142825,158172,138207,127790,170397,151074,142828,60970,74666,73718,85498,70978,72978,71940,59354,61770,76871,70150,61648,202,2025-11-17T10:46:22.262-06:00
60454,74848,73181,69417,58677,66916,69987,59449,65798,76711,69262,59960,120395,151372,138468,164425,140080,142792,158199,138205,127788,170442,151016,142756,60975,74682,73730,85527,70996,72989,71952,59353,61775,76867,70132,61626,202,2025-11-17T10:46:22.262-06:00
60445,74846,73185,69429,58685,66925,69997,59444,65787,76700,69261,59938,120396,151355,138249,164430,140083,142810,158182,138186,127776,170397,150972,142722,60987,74690,73732,85521,71005,72991,71957,59353,61755,76850,70128,61611,203,2025-11-17T10:46:22.322-06:00
60430,74833,73194,69437,58698,66900,70008,59468,65789,76705,69228,59924,120404,151397,138401,164447,140108,142834,158168,138191,127751,170367,150946,142670,60974,74668,73732,85536,71022,73006,71970,59367,61773,76836,70085,61585,203,2025-11-17T10:46:22.322-06:00
60424,74833,73177,69434,58703,66917,69982,59453,65786,76701,69239,59931,120420,151378,138525,164479,140144,142844,158195,138190,127764,170379,150948,142642,60966,74669,73722,85559,71017,73021,71959,59351,61773,76836,70101,61577,204,2025-11-17T10:46:22.437-06:00
60434,74854,73175,69437,58708,66942,70014,59457,65775,76696,69223,59904,120412,151436,138582,164489,140144,142859,158202,138221,127752,170314,150890,142609,60972,74695,73734,85558,71039,73037,71979,59360,61758,76814,70073,61563,204,2025-11-17T10:46:22.437-06:00
60437,74854,73188,69456,58709,66957,70018,59458,65779,76681,69225,59898,120438,151408,138667,164476,140171,142821,158175,138175,127743,170332,150888,142600,60991,74702,73745,85556,71044,73041,71984,59371,61756,76800,70068,61569,205,2025-11-17T10:46:22.470-06:00
60441,74852,73208,69451,58737,66982,70026,59464,65790,76686,69190,59878,120426,151435,138735,164513,140200,142864,158198,138161,127764,170310,150821,142537,60984,74699,73747,85590,71063,73051,71997,59361,61771,76813,70039,61521,205,2025-11-17T10:46:22.470-06:00
60455,74878,73204,69465,58753,67010,70039,59475,65808,76689,69192,59862,120457,151499,138844,164542,140248,142876,158206,138174,127788,170356,150841,142455,60984,74722,73780,85599,71099,73084,72010,59388,61793,76822,70037,61515,206,2025-11-17T10:46:22.530-06:00
60461,74894,73210,69476,58755,67009,70065,59500,65801,76705,69184,59880,120486,151525,138896,164563,140270,142908,158257,138208,127782,170293,150840,142524,61013,74722,73793,85612,71101,73089,72041,59402,61789,76811,70050,61528,206,2025-11-17T10:46:22.530-06:00
60453,74884,73223,69484,58764,66989,70079,59504,65810,76682,69174,59863,120477,151548,138953,164571,140292,142979,158308,138239,127815,170284,150782,142470,61013,74754,73801,85635,71115,73096,72052,59410,61806,76815,70036,61508,207,2025-11-17T10:46:22.596-06:00
60421,74852,73190,69462,58717,66920,70038,59509,65819,76688,69227,59930,120451,151457,138962,164580,140208,142877,158229,138192,127790,170311,150868,142653,60983,74680,73750,85589,71054,73030,72031,59430,61843,76870,70123,61602,207,2025-11-17T10:46:22.596-06:00
60309,74666,73044,69351,58585,66679,69859,59476,65791,76684,69297,60043,120289,151166,138759,164403,140049,142778,157892,138128,127784,170329,150993,142892,60810,74432,73514,85354,70890,72795,71877,59370,61853,76912,70209,61730,208,2025-11-17T10:46:22.719-06:00
60237,74520,72931,69286,58558,66622,69742,59434,65771,76670,69292,60027,120175,150977,138625,164339,140009,142767,157736,138078,127768,170233,150970,142862,60690,74292,73382,85217,70799,72732,71758,59360,61846,76896,70188,61722,208,2025-11-17T10:46:22.719-06:00
60246,74563,72973,69338,58603,66755,69792,59457,65794,76669,69222,59934,120237,151106,138749,164393,140103,142816,157872,138137,127794,170314,150808,142657,60734,74344,73455,85296,70870,72815,71810,59370,61837,76877,70094,61609,209,2025-11-17T10:46:22.741-06:00
60287,74637,73017,69356,58654,66825,69871,59477,65805,76665,69200,59908,120301,151236,138858,164482,140172,142906,158033,138184,127834,170245,150760,142518,60784,74423,73520,85364,70952,72903,71878,59400,61849,76864,70082,61576,209,2025-11-17T10:46:22.741-06:00
60302,74633,73006,69359,58633,66811,69899,59516,65793,76657,69200,59885,120318,151260,138892,164480,140190,142879,158055,138220,127842,170233,150709,142505,60786,74430,73517,85379,70921,72894,71911,59409,61867,76854,70061,61559,210,2025-11-17T10:46:22.801-06:00
60270,74600,72995,69364,58654,66788,69889,59501,65816,76646,69173,59872,120272,151230,138888,164522,140211,142913,158038,138228,127822,170253,150675,142453,60750,74397,73503,85367,70937,72910,71891,59419,61865,76850,70052,61547,210,2025-11-17T10:46:22.801-06:00
60285,74629,73010,69356,58664,66863,69921,59534,65816,76661,69167,59863,120352,151295,138929,164523,140278,142945,158087,138244,127837,170229,150699,142427,60802,74440,73519,85377,70966,72948,71934,59416,61868,76861,70046,61529,211,2025-11-17T10:46:22.885-06:00
60318,74670,73039,69373,58691,66876,69968,59510,65791,76645,69142,59851,120378,151378,139062,164597,140307,142984,158152,138230,127790,170222,150659,142378,60821,74479,73571,85421,70987,73001,71958,59438,61845,76827,70019,61513,211,2025-11-17T10:46:22.885-06:00
60309,74658,73011,69363,58681,66871,69953,59510,65769,76638,69150,59842,120388,151398,139038,164586,140274,142972,158100,138210,127768,170184,150659,142380,60820,74469,73534,85394,70987,72959,71947,59417,61827,76805,70019,61527,212,2025-11-17T10:46:22.950-06:00
60290,74639,73012,69372,58670,66873,69930,59511,65774,76657,69148,59841,120359,151402,139088,164596,140286,142987,158106,138154,127748,170149,150671,142366,60803,74443,73542,85409,70973,72953,71940,59405,61811,76794,70026,61493,212,2025-11-17T10:46:22.950-06:00
60293,74664,73023,69391,58687,66881,69952,59503,65785,76641,69149,59831,120398,151454,139130,164630,140325,143020,158147,138160,127702,170159,150665,142342,60806,74470,73561,85447,70991,72986,71953,59412,61799,76805,70017,61490,213,2025-11-17T10:46:23.011-06:00
60327,74699,73052,69395,58693,66940,69974,59490,65775,76631,69124,59814,120455,151491,139207,164678,140350,143027,158168,138165,127714,170128,150626,142307,60837,74504,73583,85445,71005,73014,71963,59428,61797,76759,69990,61469,213,2025-11-17T10:46:23.011-06:00
60338,74698,73049,69418,58712,66923,69997,59513,65754,76639,69128,59813,120465,151558,139249,164720,140375,143007,158202,138173,127727,170165,150589,142273,60845,74529,73605,85482,71026,73025,72005,59415,61805,76776,69985,61453,214,2025-11-17T10:46:23.071-06:00
60343,74731,73065,69413,58740,66994,70039,59514,65791,76633,69131,59801,120465,151618,139278,164725,140420,143079,158251,138188,127724,170197,150636,142245,60867,74554,73640,85487,71062,73064,72024,59431,61811,76786,69988,61451,214,2025-11-17T10:46:23.071-06:00
60363,74736,73101,69443,58727,66954,70052,59534,65785,76639,69134,59808,120500,151603,139308,164758,140424,143077,158251,138209,127717,170195,150619,142291,60876,74547,73627,85522,71064,73079,72046,59436,61812,76769,69981,61457,215,2025-11-17T10:46:23.128-06:00
60365,74742,73068,69417,58746,66996,70052,59531,65790,76648,69134,59807,120543,151659,139310,164719,140442,143086,158266,138174,127705,170161,150632,142278,60890,74572,73641,85510,71077,73073,72055,59447,61812,76775,69979,61453,215,2025-11-17T10:46:23.128-06:00
60363,74753,73085,69442,58757,67014,70071,59527,65784,76654,69135,59802,120557,151661,139331,164763,140478,143090,158283,138231,127719,170138,150628,142260,60902,74585,73639,85544,71099,73102,72068,59452,61837,76769,69995,61450,216,2025-11-17T10:46:23.221-06:00
60388,74770,73107,69440,58757,67022,70092,59553,65799,76662,69133,59820,120588,151734,139328,164788,140499,143136,158300,138231,127743,170182,150677,142299,60926,74616,73683,85541,71091,73114,72066,59454,61828,76793,70004,61466,216,2025-11-17T10:46:23.221-06:00
60386,74775,73096,69455,58766,67034,70072,59559,65796,76649,69156,59826,120630,151769,139314,164831,140543,143141,158311,138231,127738,170192,150706,142351,60941,74620,73671,85555,71115,73123,72074,59470,61850,76824,70024,61487,217,2025-11-17T10:46:23.278-06:00
60418,74800,73111,69456,58775,67030,70112,59574,65811,76671,69156,59826,120644,151820,139401,164835,140542,143170,158336,138257,127770,170213,150717,142334,60962,74658,73711,85571,71122,73147,72092,59489,61857,76814,70024,61489,217,2025-11-17T10:46:23.278-06:00
60449,74819,73125,69461,58785,67073,70116,59564,65824,76676,69186,59848,120705,151847,139425,164846,140525,143153,158337,138238,127786,170247,150717,142362,61001,74676,73701,85582,71120,73160,72097,59486,61862,76835,70034,61504,218,2025-11-17T10:46:23.364-06:00
60447,74815,73132,69466,58808,67076,70133,59589,65838,76683,69162,59828,120702,151877,139451,164868,140545,143204,158354,138277,127818,170217,150732,142343,61000,74677,73695,85599,71138,73170,72118,59500,61874,76836,70027,61475,218,2025-11-17T10:46:23.364-06:00
60428,74823,73141,69472,58821,67095,70146,59591,65851,76701,69173,59839,120701,151899,139490,164880,140591,143245,158403,138298,127800,170222,150758,142387,61012,74699,73718,85606,71155,73192,72147,59514,61890,76836,70049,61506,219,2025-11-17T10:46:23.398-06:00
60470,74843,73148,69482,58816,67125,70153,59610,65863,76710,69173,59831,120776,151974,139535,164916,140612,143209,158421,138307,127831,170266,150704,142331,61050,74734,73756,85632,71175,73212,72152,59524,61908,76854,70020,61483,219,2025-11-17T10:46:23.398-06:00
60481,74860,73173,69508,58835,67099,70185,59618,65874,76720,69188,59858,120777,151961,139536,164922,140643,143261,158407,138333,127853,170272,150760,142421,61048,74746,73755,85667,71186,73223,72159,59536,61935,76866,70049,61518,220,2025-11-17T10:46:23.493-06:00
60505,74888,73168,69498,58832,67140,70195,59644,65858,76699,69221,59885,120836,152045,139621,164928,140638,143283,158471,138366,127855,170267,150812,142474,61094,74760,73766,85666,71194,73231,72170,59553,61930,76856,70086,61541,220,2025-11-17T10:46:23.493-06:00
60515,74882,73165,69491,58808,67098,70195,59640,65855,76695,69267,59949,120842,152037,139606,164904,140652,143263,158462,138418,127844,170291,150917,142643,61106,74778,73771,85635,71177,73182,72171,59555,61936,76928,70169,61626,221,2025-11-17T10:46:23.549-06:00
60438,74745,73067,69411,58699,66883,70049,59601,65855,76740,69349,60067,120747,151815,139485,164810,140480,143100,158240,138293,127802,170373,151080,142978,60990,74586,73600,85462,71020,72990,72063,59519,61961,77005,70282,61767,221,2025-11-17T10:46:23.549-06:00
60325,74558,72902,69328,58601,66703,69833,59536,65822,76721,69383,60132,120597,151522,139288,164658,140306,142995,157907,138131,127721,170358,151167,143120,60826,74334,73376,85275,70869,72794,71876,59441,61922,77022,70335,61836,222,2025-11-17T10:46:23.612-06:00
60309,74539,72888,69311,58606,66763,69813,59496,65791,76710,69360,60095,120579,151526,139290,164658,140342,143038,157863,138069,127679,170262,151082,143052,60811,74327,73380,85239,70871,72859,71833,59402,61881,76944,70292,61797,222,2025-11-17T10:46:23.612-06:00
60373,74627,72950,69339,58667,66887,69889,59491,65795,76699,69335,60044,120649,151680,139416,164761,140420,143081,157993,138075,127683,170282,151029,142918,60880,74432,73461,85329,70957,72931,71897,59410,61853,76942,70237,61744,223,2025-11-17T10:46:23.731-06:00
60396,74676,72970,69356,58670,66896,69947,59484,65792,76706,69338,60048,120722,151791,139469,164770,140451,143061,158059,138058,127618,170294,151060,142908,60923,74485,73503,85374,70974,72944,71929,59400,61837,76902,70246,61735,223,2025-11-17T10:46:23.731-06:00
60395,74658,72958,69347,58671,66869,69933,59482,65778,76719,69350,60073,120697,151761,139464,164761,140390,143084,158028,138041,127627,170271,151077,143018,60920,74463,73477,85336,70936,72930,71916,59388,61836,76931,70276,61779,224,2025-11-17T10:46:23.766-06:00
60394,74632,72951,69345,58648,66863,69912,59473,65763,76694,69339,60054,120685,151752,139477,164785,140393,143091,158026,138028,127565,170233,151026,142953,60906,74456,73470,85336,70939,72933,71907,59389,61804,76884,70263,61742,224,2025-11-17T10:46:23.766-06:00
60410,74683,72998,69384,58700,66928,69960,59473,65777,76724,69335,60046,120746,151887,139587,164800,140469,143100,158108,138028,127585,170264,151045,142914,60952,74521,73530,85395,70992,72997,71958,59387,61808,76914,70254,61731,225,2025-11-17T10:46:23.843-06:00
60413,74714,72986,69375,58688,66923,69974,59462,65760,76743,69348,60062,120764,151928,139585,164845,140460,143114,158112,138025,127564,170273,151047,142972,60968,74548,73524,85380,70974,72980,71960,59378,61805,76903,70263,61740,225,2025-11-17T10:46:23.843-06:00
60436,74695,72962,69357,58671,66882,69974,59459,65782,76733,69380,60094,120778,151897,139635,164779,140416,143068,158091,138046,127591,170323,151171,143055,60961,74512,73500,85376,70953,72955,71958,59377,61803,76910,70306,61777,226,2025-11-17T10:46:23.881-06:00
60428,74708,72991,69363,58682,66936,69971,59468,65772,76718,69359,60062,120780,151906,139641,164827,140448,143104,158107,138032,127550,170277,151098,142970,60968,74532,73523,85389,70977,72982,71951,59375,61796,76909,70260,61749,226,2025-11-17T10:46:23.881-06:00
60429,74722,73012,69395,58706,66974,70006,59469,65771,76744,69332,60033,120786,151991,139691,164864,140505,143104,158135,137996,127552,170251,151026,142883,60970,74567,73554,85415,70998,73016,71959,59373,61778,76911,70246,61707,227,2025-11-17T10:46:23.970-06:00
60461,74775,73032,69413,58713,66964,70018,59479,65779,76724,69338,60037,120869,152056,139767,164955,140527,143136,158190,138030,127560,170267,151056,142916,61026,74596,73580,85454,71008,73046,72004,59381,61790,76883,70241,61708,227,2025-11-17T10:46:23.970-06:00
60476,74770,73056,69411,58721,67026,70053,59468,65782,76731,69320,60014,120894,152098,139798,164889,140517,143139,158202,138039,127548,170225,150933,142853,61040,74618,73601,85472,71023,73073,72005,59385,61793,76881,70232,61665,228,2025-11-17T10:46:24.033-06:00
60483,74795,73048,69424,58732,67013,70056,59488,65771,76719,69319,60016,120877,152112,139848,164954,140553,143160,158243,138059,127526,170227,150996,142861,61041,74652,73627,85489,71049,73080,72031,59402,61781,76869,70212,61684,228,2025-11-17T10:46:24.033-06:00
60493,74808,73059,69429,58735,67035,70072,59486,65781,76737,69304,60013,120891,152135,139858,164956,140554,143192,158251,138069,127562,170250,150991,142796,61059,74662,73626,85491,71062,73098,72034,59394,61787,76889,70216,61689,229,2025-11-17T10:46:24.091-06:00
60501,74810,73068,69443,58752,67056,70084,59490,65798,76727,69326,60015,120908,152168,139881,164989,140587,143179,158239,138076,127532,170229,150963,142817,61073,74678,73644,85512,71073,73110,72041,59396,61797,76885,70219,61681,229,2025-11-17T10:46:24.091-06:00
60502,74818,73081,69423,58747,67078,70100,59481,65780,76731,69332,60018,120938,152167,139880,164987,140587,143167,158233,138098,127514,170256,151045,142844,61076,74684,73637,85518,71089,73108,72056,59405,61789,76868,70241,61704,230,2025-11-17T10:46:24.148-06:00
60517,74838,73096,69448,58757,67066,70109,59485,65782,76723,69326,60018,120942,152224,139949,165010,140600,143194,158232,138114,127537,170223,150977,142802,61082,74706,73663,85529,71095,73115,72041,59393,61793,76874,70212,61686,230,2025-11-17T10:46:24.148-06:00
60544,74834,73102,69434,58780,67068,70098,59486,65790,76733,69314,60008,120924,152243,139947,165035,140652,143218,158240,138089,127532,170224,150977,142786,61113,74697,73674,85536,71100,73116,72059,59394,61796,76876,70204,61674,231,2025-11-17T10:46:24.246-06:00
60537,74848,73098,69446,58786,67094,70101,59484,65798,76736,69322,60011,120972,152274,140005,165060,140607,143209,158252,138099,127522,170221,151000,142814,61128,74730,73687,85547,71112,73136,72061,59412,61800,76879,70224,61687,231,2025-11-17T10:46:24.246-06:00
60558,74861,73122,69481,58790,67075,70123,59494,65796,76727,69311,59960,121016,152270,140030,165069,140619,143232,158292,138125,127551,170229,150933,142664,61143,74752,73709,85567,71123,73154,72072,59411,61807,76883,70204,61676,232,2025-11-17T10:46:24.327-06:00
60579,74895,73125,69476,58811,67096,70145,59509,65812,76736,69304,60000,121034,152345,140079,165080,140667,143244,158297,138132,127594,170253,150958,142758,61162,74779,73716,85599,71151,73184,72102,59419,61820,76887,70204,61673,232,2025-11-17T10:46:24.327-06:00
60579,74916,73145,69486,58807,67142,70159,59524,65807,76746,69306,60010,121019,152361,140105,165121,140693,143253,158356,138186,127620,170224,150955,142784,61163,74787,73737,85630,71156,73186,72130,59441,61831,76881,70213,61678,233,2025-11-17T10:46:24.366-06:00
60586,74918,73151,69478,58804,67130,70167,59529,65831,76728,69302,59989,121056,152403,140149,165095,140652,143228,158359,138173,127628,170206,150938,142719,61195,74818,73734,85614,71157,73180,72121,59452,61820,76888,70196,61667,233,2025-11-17T10:46:24.366-06:00
60598,74922,73143,69496,58817,67138,70163,59550,65832,76736,69319,60009,121059,152433,140147,165134,140711,143251,158333,138246,127672,170207,150989,142755,61213,74813,73745,85627,71183,73205,72132,59460,61856,76900,70232,61672,234,2025-11-17T10:46:24.445-06:00
60606,74929,73164,69510,58831,67163,70189,59560,65846,76749,69293,59983,121077,152450,140207,165200,140740,143311,158351,138262,127688,170228,150892,142716,61219,74838,73784,85659,71194,73224,72132,59480,61878,76884,70203,61657,234,2025-11-17T10:46:24.445-06:00
60604,74935,73172,69509,58839,67162,70190,59561,65843,76757,69289,59982,121102,152427,140259,165190,140755,143295,158373,138302,127700,170191,150907,142699,61219,74848,73783,85676,71192,73243,72161,59491,61889,76912,70177,61657,235,2025-11-17T10:46:24.524-06:00
60606,74940,73179,69517,58855,67193,70212,59584,65869,76740,69285,59965,121095,152443,140269,165193,140771,143309,158392,138350,127752,170229,150886,142638,61233,74847,73810,85664,71215,73259,72161,59503,61902,76918,70189,61662,235,2025-11-17T10:46:24.524-06:00
60622,74968,73185,69529,58865,67203,70213,59599,65865,76745,69262,59952,121107,152489,140320,165181,140793,143371,158416,138371,127810,170183,150816,142582,61251,74883,73816,85708,71239,73277,72193,59510,61942,76906,70126,61633,236,2025-11-17T10:46:24.571-06:00
60608,74962,73184,69546,58879,67205,70236,59626,65900,76747,69272,59940,121097,152470,140363,165243,140837,143379,158429,138457,127807,170193,150788,142568,61239,74886,73842,85740,71268,73306,72208,59537,61953,76932,70156,61615,236,2025-11-17T10:46:24.571-06:00
60637,74971,73220,69536,58892,67222,70254,59653,65896,76740,69263,59935,121115,152512,140369,165256,140831,143366,158484,138508,127856,170211,150818,142541,61259,74907,73842,85739,71272,73299,72237,59562,61965,76922,70166,61607,237,2025-11-17T10:46:24.631-06:00
60624,74987,73230,69560,58897,67215,70260,59648,65910,76749,69268,59924,121106,152510,140404,165274,140833,143372,158503,138511,127886,170205,150731,142505,61269,74906,73847,85760,71276,73314,72250,59570,61991,76946,70158,61609,237,2025-11-17T10:46:24.631-06:00
60571,74905,73134,69507,58803,67054,70179,59640,65923,76769,69371,60076,121010,152325,140309,165194,140728,143264,158366,138502,127893,170265,150962,142856,61189,74791,73730,85612,71174,73131,72188,59558,62038,77063,70317,61789,238,2025-11-17T10:46:24.691-06:00
60422,74657,72988,69409,58680,66797,69935,59596,65892,76751,69404,60138,120836,151960,140088,165039,140541,143120,157998,138408,127880,170216,150944,143021,60981,74475,73498,85379,70963,72914,71983,59495,62034,77077,70368,61854,238,2025-11-17T10:46:24.691-06:00
60370,74579,72906,69349,58665,66836,69853,59560,65883,76734,69359,60099,120732,151833,140026,164980,140496,143149,157878,138349,127874,170173,150875,142901,60896,74375,73401,85316,70941,72891,71880,59449,62026,77038,70307,61822,239,2025-11-17T10:46:24.809-06:00
60422,74650,72984,69393,58734,66946,69942,59578,65892,76734,69287,60000,120788,151970,140135,165052,140621,143236,158084,138417,127877,170160,150660,142582,60958,74497,73515,85430,71052,73019,71960,59484,62024,77018,70213,61688,239,2025-11-17T10:46:24.809-06:00
60446,74709,73034,69439,58777,67007,70032,59590,65895,76730,69252,59948,120814,152146,140240,165181,140707,143258,158197,138451,127919,170177,150562,142446,60998,74582,73609,85511,71103,73100,72041,59504,62010,76981,70181,61649,240,2025-11-17T10:46:24.844-06:00
60440,74724,73019,69425,58733,67004,70019,59584,65876,76736,69279,59994,120828,152124,140262,165126,140653,143235,158223,138498,127883,170156,150682,142547,61018,74584,73567,85502,71073,73066,72042,59503,62001,77001,70209,61684,240,2025-11-17T10:46:24.844-06:00
60427,74694,73005,69409,58739,66943,70005,59584,65882,76736,69246,59955,120784,152091,140232,165105,140674,143189,158142,138463,127887,170145,150625,142401,60985,74535,73543,85465,71044,73024,72015,59495,62000,76997,70206,61659,241,2025-11-17T10:46:24.914-06:00
60430,74713,73033,69454,58768,67021,70002,59587,65911,76744,69245,59929,120787,152139,140297,165173,140681,143266,158149,138483,127906,170143,150565,142361,60986,74581,73601,85513,71083,73084,72021,59492,61992,76983,70187,61606,241,2025-11-17T10:46:24.914-06:00
60448,74750,73041,69432,58776,67011,70050,59575,65881,76739,69253,59931,120813,152174,140318,165165,140701,143253,158255,138485,127870,170190,150606,142416,61017,74624,73621,85520,71091,73096,72034,59497,61964,76998,70182,61635,242,2025-11-17T10:46:24.961-06:00
60437,74738,73040,69422,58757,67004,70027,59553,65865,76730,69253,59921,120790,152165,140324,165154,140695,143253,158228,138470,127852,170113,150544,142335,61004,74609,73603,85504,71081,73084,72041,59476,61958,76958,70150,61607,242,2025-11-17T10:46:24.961-06:00
60423,74726,73057,69419,58762,67032,70013,59538,65878,76751,69222,59905,120764,152131,140347,165182,140678,143237,158166,138443,127858,170133,150552,142251,60982,74575,73594,85511,71085,73074,72025,59440,61949,76964,70162,61592,243,2025-11-17T10:46:25.076-06:00
60436,74751,73067,69437,58766,67057,70035,59546,65864,76733,69220,59893,120781,152159,140393,165248,140699,143222,158226,138467,127823,170087,150532,142259,60996,74596,73643,85508,71105,73096,72055,59458,61925,76943,70142,61560,243,2025-11-17T10:46:25.076-06:00
60444,74769,73069,69459,58780,67059,70061,59534,65860,76715,69207,59874,120794,152221,140412,165221,140683,143260,158223,138445,127811,170074,150508,142184,61017,74628,73648,85567,71117,73121,72047,59453,61915,76936,70121,61566,244,2025-11-17T10:46:25.112-06:00
60451,74794,73104,69463,58792,67080,70081,59519,65865,76709,69186,59850,120810,152252,140445,165234,140697,143259,158270,138472,127822,170089,150432,142101,61025,74654,73674,85584,71125,73157,72072,59462,61923,76912,70107,61536,244,2025-11-17T10:46:25.112-06:00
60456,74783,73117,69475,58805,67093,70093,59537,65858,76692,69142,59793,120784,152253,140489,165256,140750,143265,158276,138486,127801,170013,150331,141966,61022,74680,73704,85608,71150,73163,72091,59459,61908,76896,70025,61463,245,2025-11-17T10:46:25.179-06:00
60458,74819,73115,69481,58812,67137,70108,59526,65865,76694,69126,59792,120797,152300,140502,165264,140767,143264,158302,138494,127817,170030,150278,141926,61024,74691,73711,85609,71170,73179,72094,59452,61897,76896,70031,61454,245,2025-11-17T10:46:25.179-06:00
60435,74808,73121,69479,58813,67106,70120,59536,65847,76700,69122,59771,120779,152268,140525,165308,140768,143273,158300,138509,127797,169985,150260,141895,61022,74688,73720,85623,71175,73196,72105,59461,61896,76857,70000,61445,246,2025-11-17T10:46:25.256-06:00
60445,74798,73131,69496,58803,67130,70141,59538,65835,76693,69104,59755,120735,152261,140524,165331,140759,143273,158334,138531,127793,169958,150227,141841,61017,74695,73720,85622,71181,73189,72117,59454,61886,76836,70004,61434,246,2025-11-17T10:46:25.256-06:00
60451,74817,73130,69488,58828,67119,70129,59527,65853,76687,69111,59754,120762,152259,140547,165305,140780,143262,158315,138484,127809,169968,150231,141817,61032,74707,73729,85623,71179,73197,72118,59446,61901,76860,70011,61431,247,2025-11-17T10:46:25.318-06:00
60455,74811,73141,69496,58823,67156,70144,59534,65869,76694,69100,59748,120765,152288,140588,165311,140749,143284,158307,138538,127843,169964,150183,141765,61030,74703,73752,85658,71189,73211,72121,59445,61892,76839,69985,61425,247,2025-11-17T10:46:25.318-06:00
60460,74843,73146,69486,58833,67170,70145,59541,65840,76675,69057,59713,120740,152313,140596,165302,140791,143282,158327,138553,127809,169915,150141,141680,61041,74717,73764,85656,71198,73231,72138,59460,61883,76808,69947,61377,248,2025-11-17T10:46:25.379-06:00
60469,74853,73179,69524,58852,67196,70169,59539,65865,76668,69059,59701,120781,152331,140613,165350,140818,143285,158380,138564,127833,169953,150089,141647,61043,74726,73788,85698,71230,73258,72145,59471,61903,76851,69953,61360,248,2025-11-17T10:46:25.379-06:00
60452,74852,73191,69544,58845,67183,70178,59558,65881,76671,69045,59683,120748,152327,140674,165394,140797,143312,158404,138621,127882,169919,150084,141587,61033,74741,73804,85692,71236,73259,72172,59483,61936,76843,69940,61346,249,2025-11-17T10:46:25.448-06:00
60471,74859,73186,69535,58880,67193,70207,59592,65885,76700,69038,59671,120756,152349,140664,165402,140842,143340,158432,138703,127941,169910,150041,141536,61055,74760,73800,85727,71255,73273,72196,59509,61935,76845,69926,61327,249,2025-11-17T10:46:25.448-06:00
60469,74866,73200,69549,58881,67208,70227,59607,65907,76697,69023,59658,120743,152353,140697,165445,140891,143361,158497,138736,128017,169954,150010,141473,61032,74762,73827,85751,71285,73319,72215,59533,61972,76860,69907,61314,250,2025-11-17T10:46:25.513-06:00
60482,74874,73222,69559,58899,67262,70240,59630,65924,76694,69021,59654,120758,152407,140737,165480,140915,143381,158476,138811,128047,169964,149969,141459,61070,74777,73858,85774,71305,73320,72218,59550,61991,76875,69915,61298,250,2025-11-17T10:46:25.513-06:00
60490,74908,73238,69561,58904,67250,70247,59646,65921,76670,69000,59646,120778,152399,140733,165433,140913,143396,158505,138849,128066,169930,149946,141408,61091,74800,73873,85758,71304,73329,72242,59563,62008,76838,69898,61291,251,2025-11-17T10:46:25.590-06:00
60491,74898,73223,69574,58923,67259,70283,59681,65941,76666,69002,59635,120770,152408,140778,165464,140942,143400,158545,138899,128106,169908,149936,141423,61088,74796,73882,85790,71305,73345,72272,59584,62021,76868,69877,61290,251,2025-11-17T10:46:25.590-06:00
60500,74935,73253,69577,58917,67255,70260,59670,65946,76673,69013,59636,120811,152414,140790,165468,140958,143432,158558,138975,128107,169894,149957,141409,61106,74826,73900,85809,71339,73355,72285,59592,62024,76848,69886,61292,252,2025-11-17T10:46:25.654-06:00
60527,74933,73277,69595,58932,67306,70283,59695,65968,76687,69021,59655,120844,152455,140799,165494,140974,143435,158590,138982,128196,169945,149957,141462,61128,74852,73904,85824,71354,73373,72270,59611,62057,76881,69901,61308,252,2025-11-17T10:46:25.654-06:00
60537,74955,73262,69571,58920,67297,70299,59704,65957,76693,69067,59683,120849,152494,140838,165471,140951,143418,158629,139042,128196,169972,150054,141590,61158,74862,73929,85835,71337,73343,72303,59634,62051,76884,69935,61353,253,2025-11-17T10:46:25.739-06:00
60570,74982,73281,69598,58924,67283,70310,59702,65972,76700,69060,59694,120945,152522,140860,165506,140970,143468,158601,139048,128235,170012,150029,141572,61214,74917,73957,85853,71345,73376,72310,59627,62058,76892,69952,61355,253,2025-11-17T10:46:25.739-06:00
60565,74971,73276,69606,58923,67249,70299,59698,65984,76733,69123,59758,120902,152488,140826,165456,140939,143415,158630,139026,128259,170064,150194,141796,61183,74895,73934,85832,71316,73339,72312,59622,62075,76974,70053,61456,254,2025-11-17T10:46:25.773-06:00
60487,74836,73168,69507,58761,67015,70126,59645,65945,76739,69258,59924,120793,152225,140680,165334,140745,143228,158302,138931,128167,170063,150412,142233,61074,74709,73777,85643,71143,73109,72165,59571,62070,77029,70202,61642,254,2025-11-17T10:46:25.773-06:00
60386,74668,73032,69430,58675,66856,69910,59567,65909,76740,69277,59971,120659,151962,140493,165187,140583,143131,157982,138774,128088,170066,150468,142291,60929,74490,73579,85439,70980,72920,71953,59486,62050,77044,70223,61675,255,2025-11-17T10:46:25.859-06:00
60396,74672,73058,69414,58695,66906,69885,59530,65905,76750,69261,59947,120653,152000,140551,165180,140592,143159,157961,138698,128082,170038,150436,142208,60942,74504,73583,85472,71008,72969,71931,59446,62000,77013,70203,61626,255,2025-11-17T10:46:25.859-06:00
60459,74750,73128,69459,58749,67027,69993,59530,65903,76730,69198,59879,120729,152125,140663,165282,140665,143206,158112,138746,128064,170073,150374,142046,61021,74628,73698,85535,71084,73061,72002,59459,61977,76966,70140,61580,0,2025-11-17T10:46:25.924-06:00
60484,74820,73166,69481,58751,67034,70040,59537,65880,76742,69228,59890,120786,152224,140700,165305,140700,143201,158240,138748,128081,170033,150374,142074,61066,74699,73757,85594,71102,73093,72054,59462,61965,76972,70137,61581,0,2025-11-17T10:46:25.924-06:00
60478,74821,73150,69466,58722,67017,70033,59538,65884,76738,69213,59899,120758,152201,140718,165286,140630,143177,158181,138759,128068,170028,150352,142108,61081,74687,73744,85584,71063,73070,72033,59448,61940,76969,70149,61599,1,2025-11-17T10:46:25.982-06:00
60479,74807,73153,69460,58732,67015,70008,59516,65882,76745,69231,59899,120742,152202,140695,165277,140625,143188,158164,138698,128080,170077,150373,142124,61061,74678,73719,85580,71069,73062,72019,59424,61952,76990,70171,61602,1,2025-11-17T10:46:25.982-06:00
60478,74829,73176,69483,58754,67050,70027,59512,65885,76751,69234,59904,120751,152244,140747,165292,140668,143237,158198,138752,128056,170089,150406,142117,61066,74721,73765,85597,71084,73075,72025,59430,61951,76960,70152,61592,2,2025-11-17T10:46:26.043-06:00
60495,74847,73181,69456,58739,67064,70050,59509,65865,76752,69248,59911,120769,152246,140746,165288,140683,143206,158227,138788,128079,170069,150411,142144,61091,74723,73772,85592,71079,73076,72029,59433,61924,76963,70185,61616,2,2025-11-17T10:46:26.043-06:00
60506,74844,73173,69462,58728,67018,70016,59504,65880,76750,69260,59929,120768,152232,140741,165245,140663,143212,158193,138756,128074,170054,150399,142186,61078,74694,73756,85574,71059,73055,72031,59421,61935,76994,70171,61623,3,2025-11-17T10:46:26.159-06:00
60506,74839,73188,69480,58724,67029,70037,59495,65868,76740,69263,59944,120771,152249,140732,165269,140656,143202,158200,138741,128083,170112,150427,142214,61085,74718,73777,85572,71069,73058,72026,59424,61906,76975,70183,61628,3,2025-11-17T10:46:26.159-06:00
60517,74879,73204,69475,58736,67069,70040,59500,65852,76729,69238,59902,120763,152284,140730,165267,140674,143213,158222,138771,128074,170015,150388,142107,61089,74741,73794,85609,71076,73093,72041,59421,61880,76928,70139,61584,4,2025-11-17T10:46:26.219-06:00
60540,74906,73226,69485,58761,67095,70065,59491,65876,76735,69231,59884,120805,152304,140800,165327,140714,143242,158282,138773,128111,170034,150373,142068,61133,74799,73836,85654,71097,73123,72053,59428,61897,76932,70128,61578,4,2025-11-17T10:46:26.219-06:00
60530,74915,73254,69507,58760,67117,70115,59516,65871,76733,69180,59851,120790,152352,140792,165351,140722,143240,158298,138806,128116,170024,150280,141963,61123,74795,73857,85687,71125,73140,72087,59437,61896,76904,70101,61538,5,2025-11-17T10:46:26.280-06:00
60550,74947,73257,69519,58781,67128,70120,59527,65858,76738,69202,59850,120825,152371,140833,165371,140723,143262,158335,138871,128126,170009,150303,141937,61161,74834,73881,85681,71130,73138,72093,59434,61904,76901,70099,61532,5,2025-11-17T10:46:26.280-06:00
60549,74950,73271,69519,58790,67148,70131,59536,65854,76721,69175,59829,120804,152383,140843,165348,140738,143289,158366,138884,128115,169983,150291,141939,61157,74823,73890,85704,71132,73161,72103,59446,61894,76901,70082,61508,6,2025-11-17T10:46:26.308-06:00
60549,74945,73287,69522,58785,67151,70142,59526,65876,76746,69187,59818,120839,152392,140868,165364,140779,143303,158359,138854,128173,170021,150242,141847,61160,74870,73897,85738,71163,73172,72116,59446,61904,76908,70084,61502,6,2025-11-17T10:46:26.308-06:00
60557,74933,73261,69506,58774,67136,70120,59522,65885,76739,69199,59834,120826,152382,140844,165282,140717,143299,158332,138897,128157,170051,150296,141875,61157,74857,73879,85662,71131,73160,72092,59434,61895,76930,70114,61518,7,2025-11-17T10:46:26.401-06:00
60597,74969,73259,69513,58796,67165,70099,59494,65971,76835,69165,59757,120945,152375,140862,165287,140715,143335,158284,138828,128292,170257,150236,141677,61228,74884,73887,85686,71125,73178,72067,59416,61965,77038,70079,61436,7,2025-11-17T10:46:26.401-06:00
60613,74958,73277,69490,58772,67133,70069,59512,65966,76819,69209,59794,120921,152413,140847,165248,140696,143327,158262,138852,128296,170302,150319,141753,61238,74878,73892,85656,71101,73142,72052,59427,61967,77065,70144,61492,8,2025-11-17T10:46:26.460-06:00
60571,74956,73264,69489,58762,67151,70091,59518,65990,76840,69198,59788,120864,152380,140897,165283,140723,143354,158268,138890,128355,170345,150343,141758,61196,74864,73897,85677,71123,73166,72060,59442,61968,77081,70131,61478,8,2025-11-17T10:46:26.460-06:00
60591,74973,73272,69494,58766,67147,70096,59515,65971,76818,69179,59759,120928,152415,140845,165296,140733,143326,158226,138917,128354,170291,150260,141642,61234,74893,73894,85668,71094,73175,72060,59424,61965,77049,70108,61450,9,2025-11-17T10:46:26.521-06:00
60590,74988,73306,69521,58803,67205,70101,59525,65993,76839,69184,59750,120899,152414,140911,165339,140760,143359,158289,138926,128414,170335,150210,141623,61223,74908,73939,85736,71168,73199,72076,59441,61976,77060,70095,61432,9,2025-11-17T10:46:26.521-06:00
60604,74995,73307,69533,58817,67220,70122,59545,66011,76852,69189,59764,120910,152414,140915,165349,140791,143408,158306,138968,128432,170325,150274,141633,61227,74912,73952,85744,71168,73207,72098,59456,61989,77082,70093,61445,10,2025-11-17T10:46:26.610-06:00
60606,74994,73322,69545,58800,67215,70147,59548,65992,76830,69169,59748,120925,152440,140917,165351,140771,143371,158336,139030,128431,170287,150229,141613,61246,74926,73942,85755,71175,73203,72088,59457,62001,77054,70087,61439,10,2025-11-17T10:46:26.610-06:00
60619,75010,73314,69535,58812,67241,70154,59569,66011,76828,69124,59712,120899,152465,140929,165346,140775,143382,158411,139039,128480,170238,150093,141499,61252,74950,73966,85746,71186,73226,72132,59476,62015,77044,70051,61343,11,2025-11-17T10:46:26.699-06:00
60617,75025,73343,69559,58842,67242,70187,59585,66028,76837,69154,59711,120902,152449,140974,165382,140834,143421,158407,139056,128487,170265,150131,141470,61248,74957,73989,85782,71181,73251,72149,59505,62025,77060,70059,61377,11,2025-11-17T10:46:26.699-06:00
60608,75023,73343,69562,58830,67234,70187,59597,66029,76808,69129,59698,120918,152429,140915,165390,140844,143419,158423,139122,128525,170252,150143,141489,61262,74960,73978,85784,71203,73260,72159,59522,62043,77040,70055,61392,12,2025-11-17T10:46:26.738-06:00
60624,75027,73350,69569,58835,67246,70188,59614,66038,76812,69103,59676,120904,152453,140960,165388,140843,143454,158451,139167,128569,170246,150052,141384,61249,74959,74003,85815,71222,73268,72173,59532,62056,77046,70009,61344,12,2025-11-17T10:46:26.738-06:00
60613,75054,73354,69570,58848,67266,70225,59645,66051,76827,69122,59686,120898,152445,140976,165376,140861,143466,158543,139260,128583,170259,150088,141436,61244,74962,74024,85797,71227,73288,72205,59563,62074,77031,70037,61365,13,2025-11-17T10:46:26.789-06:00
60634,75071,73388,69590,58874,67310,70256,59661,66060,76807,69115,59674,120913,152489,140978,165426,140891,143482,158520,139330,128669,170237,150047,141364,61278,75003,74043,85848,71263,73313,72219,59579,62091,77055,70015,61344,13,2025-11-17T10:46:26.789-06:00
60610,75022,73378,69590,58830,67222,70241,59675,66061,76836,69179,59761,120862,152407,140972,165406,140845,143452,158534,139346,128700,170301,150169,141626,61246,74962,74019,85817,71220,73243,72220,59585,62129,77131,70113,61465,14,2025-11-17T10:46:26.880-06:00
60528,74888,73254,69507,58717,66990,70059,59637,66055,76832,69276,59918,120747,152201,140768,165306,140692,143285,158293,139279,128675,170274,150338,141935,61119,74787,73861,85616,71058,73027,72086,59568,62173,77216,70252,61620,14,2025-11-17T10:46:26.880-06:00
60427,74719,73133,69421,58623,66860,69885,59579,66030,76826,69229,59907,120631,151937,140614,165179,140542,143217,158044,139209,128666,170259,150288,141943,60992,74571,73703,85456,70907,72874,71925,59504,62157,77200,70202,61622,15,2025-11-17T10:46:26.940-06:00
60418,74737,73169,69416,58631,66914,69881,59600,66033,76823,69235,59875,120640,151957,140631,165199,140604,143240,158039,139230,128691,170292,150224,141840,60980,74588,73714,85481,70947,72932,71909,59501,62152,77166,70211,61576,15,2025-11-17T10:46:26.940-06:00
60482,74838,73227,69472,58695,67025,69974,59621,66042,76800,69173,59799,120711,152114,140768,165238,140671,143331,158251,139332,128715,170268,150143,141604,61074,74715,73823,85579,71025,73049,71989,59524,62146,77147,70131,61499,16,2025-11-17T10:46:27.001-06:00
60497,74888,73261,69505,58723,67071,70068,59633,66034,76814,69201,59819,120735,152185,140799,165324,140739,143366,158377,139373,128742,170332,150225,141693,61107,74775,73874,85641,71048,73073,72061,59541,62138,77142,70176,61521,16,2025-11-17T10:46:27.001-06:00
60512,74876,73262,69476,58695,67038,70043,59619,66024,76806,69196,59815,120751,152210,140776,165291,140717,143377,158361,139385,128769,170283,150230,141673,61111,74763,73846,85599,71037,73029,72047,59542,62133,77152,70154,61518,17,2025-11-17T10:46:27.060-06:00
60499,74868,73259,69485,58712,67047,70023,59622,66040,76810,69197,59802,120720,152128,140791,165323,140730,143364,158337,139342,128763,170333,150176,141638,61096,74750,73853,85622,71049,73051,72041,59538,62126,77149,70150,61497,17,2025-11-17T10:46:27.060-06:00
60492,74901,73286,69496,58704,67064,70042,59621,66036,76845,69212,59818,120703,152203,140827,165294,140714,143364,158353,139379,128741,170352,150203,141678,61108,74791,73876,85636,71061,73073,72045,59518,62095,77148,70157,61501,18,2025-11-17T10:46:27.174-06:00
60502,74904,73272,69491,58699,67044,70069,59596,66028,76821,69204,59807,120739,152187,140804,165280,140711,143408,158387,139355,128696,170320,150244,141683,61111,74786,73888,85627,71032,73059,72051,59510,62065,77118,70152,61511,18,2025-11-17T10:46:27.174-06:00
60501,74880,73267,69489,58693,67050,70046,59588,66026,76827,69192,59779,120749,152181,140798,165242,140704,143378,158381,139332,128692,170339,150195,141547,61103,74778,73876,85633,71015,73040,72028,59493,62078,77117,70089,61489,19,2025-11-17T10:46:27.211-06:00
60511,74901,73266,69466,58700,67069,70014,59562,66015,76836,69230,59817,120718,152143,140780,165286,140690,143389,158340,139314,128708,170369,150274,141705,61089,74770,73863,85602,71024,73034,72008,59482,62060,77149,70175,61508,19,2025-11-17T10:46:27.211-06:00
60524,74897,73291,69469,58703,67094,70047,59582,66011,76815,69184,59779,120752,152201,140806,165285,140693,143400,158385,139348,128707,170324,150171,141598,61093,74800,73894,85618,71039,73051,72022,59485,62050,77093,70115,61466,20,2025-11-17T10:46:27.270-06:00
60523,74928,73291,69493,58726,67128,70076,59576,66024,76823,69179,59744,120758,152232,140827,165298,140762,143426,158402,139384,128703,170347,150132,141471,61121,74826,73907,85643,71061,73093,72038,59476,62040,77101,70096,61424,20,2025-11-17T10:46:27.270-06:00
60514,74930,73311,69496,58721,67125,70102,59578,65997,76792,69117,59685,120740,152241,140840,165316,140769,143421,158457,139384,128728,170276,150020,141367,61122,74831,73931,85664,71078,73116,72065,59499,62032,77058,70040,61373,21,2025-11-17T10:46:27.340-06:00
60530,74955,73313,69497,58734,67141,70121,59586,66016,76807,69122,59691,120746,152253,140846,165344,140756,143466,158475,139384,128732,170292,150060,141356,61109,74839,73942,85689,71097,73132,72081,59472,62044,77047,70041,61368,21,2025-11-17T10:46:27.340-06:00
60512,74946,73312,69509,58748,67164,70135,59574,65989,76797,69089,59675,120721,152255,140851,165316,140776,143471,158495,139408,128735,170280,149996,141274,61121,74844,73932,85685,71100,73147,72093,59484,62017,77029,70013,61338,22,2025-11-17T10:46:27.452-06:00
60524,74965,73342,69527,58741,67139,70152,59594,66001,76786,69075,59661,120723,152260,140870,165364,140808,143490,158555,139430,128745,170250,149954,141217,61124,74842,73964,85712,71104,73135,72104,59495,62027,77033,69989,61305,22,2025-11-17T10:46:27.452-06:00
60519,74942,73324,69512,58733,67131,70137,59580,66002,76789,69095,59652,120728,152265,140853,165319,140774,143484,158546,139432,128756,170243,149956,141191,61125,74856,73967,85704,71106,73151,72092,59495,62022,77019,69993,61318,23,2025-11-17T10:46:27.483-06:00
60507,74959,73329,69517,58757,67147,70150,59582,66004,76790,69075,59636,120704,152257,140868,165331,140814,143477,158557,139450,128751,170202,149932,141156,61108,74864,73972,85729,71104,73164,72105,59506,62018,77018,69965,61299,23,2025-11-17T10:46:27.483-06:00
60514,74966,73349,69538,58749,67172,70154,59593,66016,76773,69078,59614,120738,152282,140856,165354,140816,143520,158574,139464,128779,170235,149919,141106,61129,74868,73969,85724,71130,73164,72107,59501,62022,77020,69986,61285,24,2025-11-17T10:46:27.545-06:00
60529,74978,73345,69525,58756,67186,70162,59594,66008,76778,69063,59618,120716,152280,140840,165312,140824,143547,158580,139488,128826,170213,149916,141109,61128,74870,73988,85732,71137,73177,72102,59502,62028,77012,69963,61279,24,2025-11-17T10:46:27.545-06:00
60525,74964,73353,69537,58767,67221,70163,59606,66006,76772,69043,59590,120729,152252,140850,165330,140832,143533,158639,139510,128807,170209,149832,141017,61123,74886,73997,85744,71153,73180,72135,59507,62037,76991,69931,61245,25,2025-11-17T10:46:27.627-06:00
60531,74990,73369,69555,58781,67215,70190,59616,66015,76765,69036,59542,120738,152303,140897,165377,140878,143575,158645,139530,128840,170190,149864,140927,61137,74887,74010,85780,71171,73209,72142,59532,62051,76976,69918,61197,25,2025-11-17T10:46:27.627-06:00
60537,74993,73370,69566,58796,67222,70198,59631,66027,76747,69031,59533,120767,152291,140888,165372,140877,143579,158661,139583,128899,170194,149857,140877,61141,74901,74025,85792,71178,73214,72151,59550,62076,76967,69910,61192,26,2025-11-17T10:46:27.695-06:00
60542,74999,73375,69563,58806,67231,70221,59643,66023,76739,69019,59508,120728,152326,140890,165410,140920,143588,158696,139640,128916,170132,149770,140794,61145,74911,74025,85822,71206,73242,72167,59564,62072,76953,69845,61149,26,2025-11-17T10:46:27.695-06:00
60539,75005,73409,69592,58841,67272,70223,59655,66055,76759,68986,59482,120734,152327,140943,165414,140932,143627,158713,139710,128982,170141,149643,140679,61149,74926,74062,85845,71232,73272,72205,59578,62094,76967,69876,61121,27,2025-11-17T10:46:27.754-06:00
60531,75006,73405,69601,58838,67287,70255,59695,66048,76732,68985,59472,120741,152345,140939,165453,140978,143591,158762,139771,129006,170096,149697,140671,61129,74926,74075,85867,71263,73287,72212,59604,62107,76944,69847,61121,27,2025-11-17T10:46:27.754-06:00
60530,74999,73408,69605,58863,67285,70270,59699,66055,76727,68958,59438,120714,152308,140952,165477,141047,143649,158821,139802,129068,170107,149667,140571,61142,74921,74069,85872,71276,73310,72255,59617,62119,76936,69825,61081,28,2025-11-17T10:46:27.809-06:00
60515,75021,73431,69631,58876,67314,70297,59715,66092,76733,68958,59421,120727,152333,140955,165501,141054,143679,158866,139882,129115,170164,149633,140480,61154,74960,74100,85897,71295,73342,72260,59631,62162,76958,69830,61053,28,2025-11-17T10:46:27.809-06:00
60534,75022,73424,69623,58883,67313,70324,59735,66070,76733,68973,59452,120756,152337,140970,165463,141058,143710,158885,139942,129134,170144,149702,140594,61150,74941,74108,85895,71308,73350,72257,59674,62180,76976,69863,61097,29,2025-11-17T10:46:27.871-06:00
60532,75029,73436,69637,58896,67351,70321,59770,66099,76750,68965,59431,120749,152354,140977,165493,141065,143731,158940,139976,129183,170154,149691,140558,61179,74990,74115,85906,71323,73366,72290,59670,62186,76989,69840,61075,29,2025-11-17T10:46:27.871-06:00
60518,75022,73446,69646,58898,67348,70312,59783,66113,76767,68990,59463,120751,152345,141025,165534,141081,143698,158894,140014,129240,170221,149707,140626,61160,74959,74133,85938,71339,73357,72308,59701,62232,77024,69892,61116,30,2025-11-17T10:46:27.958-06:00
60472,74936,73349,69557,58774,67141,70185,59776,66105,76773,69111,59601,120655,152154,140904,165400,140909,143562,158781,140001,129245,170247,149869,140979,61068,74835,73986,85765,71183,73147,72248,59697,62262,77114,70017,61275,30,2025-11-17T10:46:27.958-06:00
60348,74740,73219,69481,58670,66921,70002,59727,66076,76735,69121,59650,120511,151863,140669,165284,140730,143455,158451,139913,129181,170175,149872,141077,60881,74582,73773,85558,71005,72959,72048,59630,62244,77116,70069,61317,31,2025-11-17T10:46:28.050-06:00
60320,74680,73179,69444,58681,66945,69940,59706,66067,76739,69062,59596,120444,151782,140621,165239,140757,143469,158395,139897,129194,170199,149790,140902,60832,74529,73745,85543,71009,72970,71978,59606,62242,77093,69992,61261,31,2025-11-17T10:46:28.050-06:00
60373,74774,73277,69510,58726,67077,70045,59708,66060,76707,69020,59513,120513,151971,140767,165307,140852,143567,158543,139913,129208,170140,149695,140703,60930,74648,73858,85652,71086,73080,72045,59607,62228,77025,69940,61176,32,2025-11-17T10:46:28.106-06:00
60409,74860,73298,69530,58762,67144,70136,59724,66050,76731,69020,59498,120575,152093,140848,165342,140891,143647,158678,139990,129185,170137,149705,140668,60991,74752,73942,85717,71143,73172,72135,59633,62174,77010,69916,61134,32,2025-11-17T10:46:28.106-06:00
60413,74852,73306,69518,58763,67140,70153,59706,66024,76687,69003,59476,120617,152111,140825,165334,140876,143621,158748,139969,129122,170116,149691,140607,61000,74759,73929,85713,71132,73155,72153,59615,62141,76973,69908,61100,33,2025-11-17T10:46:28.139-06:00
60389,74821,73301,69533,58757,67119,70110,59678,66022,76706,69003,59474,120551,152059,140817,165368,140900,143603,158696,139887,129117,170143,149705,140617,60960,74738,73922,85716,71141,73146,72125,59578,62139,76965,69896,61109,33,2025-11-17T10:46:28.139-06:00
60390,74855,73306,69540,58760,67155,70095,59656,66008,76702,69011,59462,120559,152083,140815,165349,140881,143579,158666,139864,129120,170126,149692,140584,60959,74742,73926,85714,71134,73163,72092,59562,62107,76948,69890,61108,34,2025-11-17T10:46:28.232-06:00
60384,74838,73313,69530,58749,67148,70124,59645,65991,76669,68997,59476,120550,152074,140812,165348,140887,143577,158707,139853,129055,170092,149716,140599,60945,74727,73937,85723,71142,73136,72102,59556,62060,76920,69878,61113,34,2025-11-17T10:46:28.232-06:00
60370,74837,73301,69523,58740,67145,70106,59618,65974,76661,69000,59476,120535,152032,140788,165340,140866,143572,158691,139843,129026,170070,149719,140649,60941,74696,73903,85685,71114,73122,72095,59548,62052,76913,69895,61117,35,2025-11-17T10:46:28.289-06:00
60366,74821,73272,69523,58739,67115,70094,59623,65976,76683,69011,59478,120513,152006,140781,165331,140875,143563,158656,139840,129052,170117,149747,140641,60908,74687,73907,85695,71107,73108,72067,59542,62060,76927,69897,61126,35,2025-11-17T10:46:28.289-06:00
60367,74827,73296,69527,58728,67145,70094,59615,65971,76685,69006,59486,120519,152037,140767,165314,140900,143569,158663,139821,129078,170091,149777,140656,60920,74717,73902,85707,71128,73120,72071,59533,62044,76925,69897,61126,36,2025-11-17T10:46:28.354-06:00
60387,74850,73299,69536,58745,67182,70130,59629,65952,76673,69000,59450,120546,152096,140796,165344,140895,143596,158716,139838,129063,170110,149726,140612,60932,74733,73913,85708,71139,73165,72099,59532,62042,76876,69850,61085,36,2025-11-17T10:46:28.354-06:00
60400,74872,73313,69542,58777,67183,70153,59623,65957,76679,68976,59445,120577,152124,140821,165391,140932,143629,158806,139861,129094,170140,149722,140571,60953,74751,73933,85756,71164,73176,72127,59523,62021,76860,69841,61067,37,2025-11-17T10:46:28.411-06:00
60414,74899,73322,69562,58787,67210,70168,59631,65961,76685,69011,59464,120605,152153,140832,165382,140963,143649,158815,139851,129123,170110,149778,140638,60993,74773,73965,85766,71172,73203,72127,59532,62029,76862,69864,61094,37,2025-11-17T10:46:28.411-06:00
60428,74909,73334,69544,58787,67212,70182,59632,65964,76683,69003,59472,120626,152197,140846,165376,140948,143673,158820,139893,129118,170104,149828,140668,60982,74809,73964,85754,71165,73221,72138,59534,62020,76854,69872,61101,38,2025-11-17T10:46:28.505-06:00
60443,74915,73352,69574,58791,67244,70208,59628,65969,76682,69033,59481,120665,152207,140868,165372,140963,143665,158842,139906,129176,170168,149860,140704,61025,74818,74004,85776,71191,73227,72156,59551,62041,76886,69894,61110,38,2025-11-17T10:46:28.505-06:00
60457,74925,73361,69556,58781,67222,70206,59651,65971,76692,69046,59498,120688,152239,140858,165390,140969,143688,158861,139944,129189,170182,149924,140756,61041,74828,73989,85770,71204,73217,72165,59546,62065,76898,69904,61117,39,2025-11-17T10:46:28.585-06:00
60475,74939,73343,69547,58790,67238,70198,59661,65981,76710,69069,59531,120710,152237,140849,165397,140941,143691,158872,139975,129196,170210,149974,140803,61061,74853,73987,85778,71183,73225,72169,59573,62051,76899,69928,61156,39,2025-11-17T10:46:28.585-06:00
60483,74950,73351,69544,58797,67236,70196,59669,65995,76709,69064,59516,120757,152288,140886,165398,140967,143687,158851,139951,129220,170234,149978,140819,61083,74859,73994,85788,71191,73228,72183,59554,62063,76904,69924,61147,40,2025-11-17T10:46:28.621-06:00
60493,74946,73366,69567,58806,67247,70227,59669,65975,76735,69067,59534,120774,152254,140897,165409,141005,143730,158898,139980,129240,170287,150020,140870,61081,74874,74003,85792,71218,73257,72192,59569,62061,76915,69946,61160,40,2025-11-17T10:46:28.621-06:00
60495,74962,73373,69574,58804,67262,70226,59663,65965,76699,69080,59535,120786,152272,140874,165365,140995,143759,158899,139970,129213,170250,150047,140904,61112,74878,74010,85797,71200,73246,72198,59575,62042,76894,69942,61167,41,2025-11-17T10:46:28.686-06:00
60524,75002,73396,69565,58811,67290,70245,59656,65970,76716,69077,59549,120814,152322,140919,165413,141002,143762,158925,139960,129229,170221,150043,140911,61113,74886,74018,85822,71213,73258,72201,59565,62028,76891,69950,61169,41,2025-11-17T10:46:28.686-06:00
60535,75008,73409,69577,58821,67266,70250,59673,65968,76712,69092,59541,120798,152326,140929,165399,141028,143755,158920,139959,129235,170210,150070,140924,61129,74911,74052,85850,71225,73280,72191,59562,62031,76878,69942,61164,42,2025-11-17T10:46:28.773-06:00
60544,75021,73408,69587,58823,67305,70256,59678,65960,76709,69087,59543,120847,152364,140975,165419,141052,143750,158935,139991,129257,170239,150090,140945,61139,74928,74048,85831,71242,73285,72212,59581,62032,76879,69946,61172,42,2025-11-17T10:46:28.773-06:00
60545,75025,73400,69587,58829,67320,70266,59671,65954,76694,69084,59531,120846,152364,140960,165416,141027,143747,158939,139989,129241,170203,150078,140940,61163,74952,74048,85851,71246,73288,72217,59584,62020,76858,69925,61164,43,2025-11-17T10:46:28.838-06:00
60543,75022,73427,69604,58825,67318,70282,59668,65954,76720,69097,59548,120851,152374,140956,165432,141041,143760,159006,140008,129261,170246,150104,140984,61157,74947,74069,85851,71251,73287,72243,59573,62033,76881,69956,61183,43,2025-11-17T10:46:28.838-06:00
60574,75056,73438,69602,58831,67337,70268,59682,65961,76701,69117,59579,120870,152435,140946,165461,141030,143748,158960,140005,129269,170269,150143,141032,61197,74977,74083,85871,71242,73288,72238,59568,62033,76873,69983,61187,44,2025-11-17T10:46:28.889-06:00
60566,75059,73411,69602,58817,67281,70283,59668,65936,76724,69164,59642,120889,152405,140937,165465,141011,143723,158938,140002,129220,170299,150238,141235,61188,74947,74060,85835,71236,73253,72229,59572,62017,76908,70028,61278,44,2025-11-17T10:46:28.889-06:00
60477,74889,73299,69509,58692,67095,70140,59613,65908,76716,69264,59770,120751,152137,140743,165294,140844,143562,158740,139847,129162,170310,150458,141559,61063,74774,73879,85670,71081,73040,72110,59522,62016,76984,70179,61441,45,2025-11-17T10:46:28.958-06:00
60369,74742,73175,69434,58591,66905,69926,59536,65886,76726,69328,59827,120604,151875,140593,165167,140684,143462,158407,139694,129106,170316,150527,141716,60904,74562,73710,85477,70925,72880,71902,59440,61983,77004,70238,61509,45,2025-11-17T10:46:28.958-06:00
60347,74709,73155,69398,58593,66932,69851,59484,65856,76699,69289,59787,120572,151841,140554,165151,140687,143489,158322,139621,129088,170299,150478,141610,60867,74517,73692,85442,70911,72899,71853,59385,61953,76953,70185,61422,46,2025-11-17T10:46:29.064-06:00
60383,74784,73218,69451,58646,67051,69958,59500,65865,76719,69230,59720,120630,151997,140671,165185,140764,143556,158475,139676,129070,170334,150386,141445,60933,74625,73770,85520,70974,72995,71921,59397,61915,76934,70115,61375,46,2025-11-17T10:46:29.064-06:00
60433,74846,73252,69464,58681,67119,70033,59509,65830,76684,69233,59714,120685,152110,140740,165247,140782,143563,158596,139671,129073,170308,150411,141433,60996,74697,73826,85581,71023,73042,71985,59403,61881,76892,70113,61358,47,2025-11-17T10:46:29.099-06:00
60425,74860,73254,69449,58664,67115,70050,59494,65842,76717,69223,59700,120702,152105,140744,165251,140797,143572,158609,139689,129074,170353,150421,141422,61002,74710,73837,85588,71003,73043,71990,59395,61889,76912,70122,61357,47,2025-11-17T10:46:29.099-06:00
60450,74842,73242,69450,58649,67111,70011,59481,65847,76731,69250,59717,120721,152123,140738,165246,140769,143533,158593,139619,129060,170385,150484,141469,60990,74683,73810,85570,70989,73013,71975,59378,61866,76913,70120,61376,48,2025-11-17T10:46:29.159-06:00
60436,74867,73257,69453,58682,67117,70034,59470,65851,76714,69257,59717,120747,152141,140763,165273,140801,143566,158599,139641,129097,170401,150499,141481,61008,74718,73825,85592,71012,73057,71963,59373,61871,76904,70121,61368,48,2025-11-17T10:46:29.159-06:00
60429,74869,73255,69460,58668,67119,70036,59479,65846,76732,69253,59718,120744,152173,140767,165257,140819,143578,158631,139659,129086,170414,150510,141472,60996,74709,73833,85580,71019,73062,71990,59356,61863,76912,70123,61364,49,2025-11-17T10:46:29.218-06:00
60434,74852,73241,69449,58664,67088,70032,59467,65839,76726,69279,59762,120722,152148,140752,165274,140756,143524,158568,139665,129094,170435,150559,141603,60990,74698,73803,85565,70998,73018,71955,59360,61866,76919,70166,61409,49,2025-11-17T10:46:29.218-06:00
60438,74832,73244,69448,58653,67096,70014,59466,65822,76726,69238,59748,120752,152104,140746,165254,140758,143548,158561,139617,129082,170391,150577,141561,60981,74695,73795,85554,70989,73021,71932,59353,61831,76883,70145,61398,50,2025-11-17T10:46:29.311-06:00
60439,74869,73259,69455,58660,67113,70021,59447,65833,76724,69250,59712,120794,152178,140757,165292,140804,143553,158607,139625,129100,170426,150550,141495,61017,74721,73817,85580,70989,73043,71967,59350,61840,76887,70130,61352,50,2025-11-17T10:46:29.311-06:00
60454,74890,73262,69463,58686,67139,70053,59460,65819,76705,69244,59710,120799,152243,140784,165282,140835,143580,158630,139651,129097,170384,150545,141498,61005,74740,73826,85604,71036,73089,71975,59352,61811,76870,70124,61354,51,2025-11-17T10:46:29.429-06:00
60483,74902,73283,69481,58688,67180,70079,59465,65825,76715,69222,59691,120813,152286,140834,165343,140863,143589,158695,139702,129136,170413,150502,141437,61046,74765,73875,85620,71042,73100,72005,59368,61825,76840,70098,61310,51,2025-11-17T10:46:29.429-06:00
60470,74923,73305,69473,58702,67211,70103,59470,65836,76707,69230,59696,120880,152316,140858,165334,140886,143615,158716,139704,129130,170431,150530,141417,61064,74785,73870,85638,71074,73121,72013,59371,61841,76875,70094,61314,52,2025-11-17T10:46:29.460-06:00
60482,74933,73305,69495,58709,67223,70131,59499,65839,76712,69223,59685,120875,152346,140873,165363,140902,143618,158749,139738,129160,170413,150540,141412,61053,74806,73904,85645,71089,73128,72048,59374,61840,76835,70074,61311,52,2025-11-17T10:46:29.460-06:00
60484,74917,73321,69499,58716,67213,70134,59509,65847,76708,69232,59661,120860,152320,140876,165390,140947,143668,158771,139736,129168,170448,150495,141397,61079,74799,73923,85657,71109,73168,72073,59384,61854,76843,70064,61296,53,2025-11-17T10:46:29.516-06:00
60493,74939,73311,69497,58734,67227,70146,59516,65867,76732,69237,59690,120896,152361,140881,165398,140931,143668,158786,139776,129206,170487,150561,141449,61073,74817,73910,85662,71110,73161,72062,59412,61866,76863,70093,61335,53,2025-11-17T10:46:29.516-06:00
60502,74956,73309,69498,58742,67226,70151,59531,65860,76709,69171,59684,120884,152368,140880,165392,140945,143660,158759,139802,129251,170497,150534,141400,61099,74832,73908,85680,71114,73162,72058,59418,61870,76878,70036,61312,54,2025-11-17T10:46:29.586-06:00
60510,74956,73319,69499,58740,67266,70165,59540,65876,76724,69221,59658,120941,152383,140875,165408,140961,143673,158795,139832,129261,170510,150530,141408,61086,74842,73930,85689,71133,73194,72075,59427,61891,76880,70094,61296,54,2025-11-17T10:46:29.586-06:00
60498,74943,73324,69524,58769,67243,70171,59558,65886,76725,69233,59672,120947,152406,140922,165422,140988,143724,158829,139848,129274,170522,150555,141415,61095,74841,73933,85714,71139,73192,72075,59437,61897,76875,70091,61311,55,2025-11-17T10:46:29.641-06:00
60520,74964,73334,69515,58764,67283,70197,59572,65904,76732,69229,59647,120972,152472,140945,165419,140992,143717,158850,139891,129327,170542,150552,141405,61101,74856,73950,85707,71156,73214,72110,59441,61939,76877,70089,61296,55,2025-11-17T10:46:29.641-06:00
60536,74983,73330,69527,58780,67311,70195,59584,65912,76727,69234,59660,120992,152460,140976,165453,141020,143709,158908,139907,129370,170573,150564,141400,61135,74867,73949,85721,71151,73221,72116,59451,61937,76910,70078,61285,56,2025-11-17T10:46:29.707-06:00
60541,75010,73358,69539,58799,67305,70226,59607,65933,76732,69205,59645,121018,152479,141005,165459,141089,143765,158908,139977,129411,170566,150544,141354,61144,74875,73968,85746,71188,73261,72142,59492,61966,76902,70074,61275,56,2025-11-17T10:46:29.707-06:00
60534,75005,73348,69538,58802,67326,70232,59615,65943,76732,69214,59634,121024,152513,140995,165491,141085,143788,158968,140016,129436,170586,150519,141334,61150,74888,73973,85759,71219,73257,72162,59487,61979,76928,70063,61276,57,2025-11-17T10:46:29.760-06:00
60548,75007,73369,69543,58811,67336,70250,59641,65960,76744,69232,59647,121065,152520,141015,165489,141082,143800,158953,140051,129479,170607,150610,141375,61165,74914,73984,85765,71203,73280,72181,59527,61996,76943,70102,61292,57,2025-11-17T10:46:29.760-06:00
60559,75013,73368,69561,58819,67333,70254,59650,65963,76753,69203,59609,121058,152548,140991,165501,141110,143801,158960,140060,129534,170588,150458,141267,61179,74915,74004,85779,71230,73284,72185,59526,62013,76939,70054,61256,58,2025-11-17T10:46:29.864-06:00
60562,75028,73379,69564,58832,67374,70278,59670,65980,76778,69211,59640,121080,152593,140998,165557,141150,143821,159017,140116,129545,170617,150572,141375,61176,74935,74007,85800,71257,73333,72208,59558,62024,76951,70075,61280,58,2025-11-17T10:46:29.864-06:00
60581,75042,73400,69580,58851,67397,70306,59708,65990,76772,69215,59632,121102,152624,141051,165561,141159,143892,159037,140212,129593,170648,150522,141307,61196,74963,74029,85829,71274,73335,72237,59575,62049,76953,70077,61276,59,2025-11-17T10:46:29.913-06:00
60552,75031,73381,69588,58848,67352,70299,59712,65999,76772,69270,59699,121100,152579,141038,165565,141155,143856,159051,140226,129618,170655,150647,141487,61186,74955,74025,85829,71264,73315,72243,59597,62089,77005,70157,61358,59,2025-11-17T10:46:29.913-06:00
60473,74894,73271,69498,58720,67115,70154,59710,65997,76781,69363,59824,120976,152336,140902,165477,140976,143671,158858,140153,129597,170682,150766,141810,61073,74765,73849,85615,71081,73089,72143,59573,62120,77087,70273,61483,60,2025-11-17T10:46:29.997-06:00
60335,74710,73125,69417,58649,66985,69967,59662,65957,76760,69346,59830,120796,152059,140703,165358,140849,143607,158538,140054,129584,170668,150728,141804,60877,74508,73639,85435,70959,72934,71965,59526,62121,77094,70273,61520,60,2025-11-17T10:46:29.997-06:00
60300,74673,73103,69393,58644,67005,69918,59619,65951,76717,69290,59762,120708,151991,140670,165324,140879,143613,158505,140051,129576,170622,150596,141582,60829,74450,73612,85419,70978,72975,71903,59496,62085,77058,70208,61409,61,2025-11-17T10:46:30.030-06:00
60337,74734,73171,69453,58719,67146,70047,59648,65953,76717,69210,59650,120758,152151,140773,165384,140995,143691,158701,140107,129581,170622,150480,141339,60871,74572,73712,85533,71067,73092,72011,59522,62066,76992,70109,61310,61,2025-11-17T10:46:30.030-06:00
60357,74790,73216,69484,58750,67227,70121,59680,65959,76731,69209,59634,120834,152273,140872,165471,141047,143744,158857,140160,129565,170633,150468,141287,60919,74662,73775,85605,71111,73157,72087,59535,62038,76985,70092,61280,62,2025-11-17T10:46:30.157-06:00
60365,74805,73200,69473,58741,67204,70140,59662,65956,76706,69173,59625,120851,152305,140882,165449,141049,143757,158902,140137,129538,170611,150416,141207,60908,74643,73777,85600,71099,73164,72103,59534,62025,76955,70075,61261,62,2025-11-17T10:46:30.157-06:00
60340,74767,73200,69483,58748,67178,70099,59629,65943,76740,69185,59605,120820,152272,140880,165489,141035,143746,158870,140104,129516,170657,150426,141196,60889,74617,73753,85585,71114,73146,72082,59501,62003,76950,70080,61250,63,2025-11-17T10:46:30.182-06:00
60329,74789,73210,69488,58745,67200,70096,59613,65937,76718,69185,59588,120795,152317,140898,165484,141029,143735,158859,140056,129484,170652,150422,141162,60887,74621,73766,85605,71108,73155,72070,59475,61983,76949,70044,61218,63,2025-11-17T10:46:30.182-06:00
60328,74790,73209,69485,58732,67198,70112,59593,65907,76705,69173,59580,120823,152295,140897,165519,140996,143710,158852,140024,129476,170620,150392,141150,60876,74621,73763,85592,71098,73141,72066,59470,61972,76896,70033,61228,64,2025-11-17T10:46:30.239-06:00
60316,74775,73193,69466,58737,67182,70094,59587,65899,76701,69166,59576,120761,152267,140893,165530,141033,143709,158799,139997,129469,170610,150378,141129,60849,74597,73742,85566,71092,73147,72054,59450,61959,76917,70038,61214,64,2025-11-17T10:46:30.239-06:00
60291,74746,73186,69462,58731,67205,70064,59583,65909,76701,69147,59547,120729,152246,140894,165508,141019,143707,158789,140014,129448,170624,150355,141081,60827,74571,73725,85563,71101,73129,72039,59456,61952,76901,70013,61183,65,2025-11-17T10:46:30.330-06:00
60281,74750,73192,69474,58739,67217,70098,59588,65882,76682,69131,59539,120733,152284,140921,165538,141085,143690,158854,139999,129432,170633,150337,140990,60810,74590,73734,85585,71119,73149,72050,59440,61937,76879,69984,61165,65,2025-11-17T10:46:30.330-06:00
60294,74768,73223,69480,58753,67253,70128,59582,65891,76692,69048,59486,120775,152328,140943,165556,141062,143742,158873,140019,129438,170571,150242,140869,60823,74618,73766,85590,71134,73198,72079,59450,61929,76838,69950,61076,66,2025-11-17T10:46:30.391-06:00
60306,74801,73212,69511,58781,67269,70148,59572,65898,76658,69070,59458,120782,152356,140958,165598,141093,143749,158962,140001,129454,170546,150179,140812,60827,74611,73772,85635,71153,73215,72105,59455,61914,76815,69921,61068,66,2025-11-17T10:46:30.391-06:00
60319,74813,73210,69494,58777,67298,70171,59592,65896,76676,69064,59444,120803,152353,140972,165616,141130,143745,158929,140052,129457,170567,150223,140804,60827,74639,73776,85658,71175,73229,72116,59463,61908,76810,69907,61075,67,2025-11-17T10:46:30.489-06:00
60311,74801,73241,69499,58786,67300,70177,59600,65886,76657,69052,59435,120815,152399,140982,165637,141124,143761,158968,140036,129438,170571,150186,140751,60838,74638,73802,85653,71176,73246,72147,59463,61912,76790,69886,61047,67,2025-11-17T10:46:30.489-06:00
60321,74809,73231,69508,58804,67318,70196,59610,65889,76660,69058,59436,120818,152472,141001,165633,141147,143772,158984,140077,129471,170546,150198,140760,60865,74652,73810,85661,71180,73246,72139,59475,61912,76788,69884,61055,68,2025-11-17T10:46:30.535-06:00
60311,74815,73235,69517,58816,67328,70205,59606,65913,76673,69040,59399,120812,152452,140996,165653,141177,143774,159014,140098,129483,170538,150138,140705,60844,74654,73798,85703,71209,73255,72160,59492,61923,76788,69864,61023,68,2025-11-17T10:46:30.535-06:00
60319,74824,73254,69522,58816,67341,70201,59612,65904,76651,69037,59418,120838,152447,141040,165688,141165,143785,158964,140113,129491,170546,150187,140709,60855,74676,73826,85679,71195,73274,72148,59506,61931,76796,69879,61034,69,2025-11-17T10:46:30.604-06:00
60333,74815,73242,69526,58810,67327,70216,59632,65908,76658,69048,59420,120847,152474,141005,165650,141177,143837,159008,140140,129496,170512,150153,140724,60847,74675,73843,85677,71217,73284,72171,59500,61937,76786,69881,61033,69,2025-11-17T10:46:30.604-06:00
60321,74828,73261,69543,58850,67380,70239,59633,65918,76658,68990,59360,120882,152497,141037,165723,141199,143824,159010,140160,129542,170524,149998,140562,60870,74703,73842,85708,71243,73301,72192,59521,61944,76779,69815,60942,70,2025-11-17T10:46:30.662-06:00
60321,74838,73267,69549,58851,67376,70250,59660,65926,76647,68992,59346,120848,152508,141042,165720,141240,143837,159023,140204,129577,170488,150047,140507,60869,74698,73825,85737,71261,73344,72192,59524,61963,76764,69795,60950,70,2025-11-17T10:46:30.662-06:00
60307,74837,73272,69563,58871,67393,70277,59675,65924,76632,68948,59315,120850,152516,141071,165782,141272,143859,159084,140253,129591,170461,149953,140425,60846,74668,73849,85747,71280,73349,72219,59557,61973,76741,69755,60925,71,2025-11-17T10:46:30.720-06:00
60287,74823,73277,69601,58904,67429,70314,59704,65905,76577,68878,59256,120828,152527,141104,165828,141351,143906,159173,140301,129627,170368,149772,140235,60824,74681,73874,85781,71326,73376,72275,59581,61990,76682,69671,60850,71,2025-11-17T10:46:30.720-06:00
60252,74825,73287,69625,58929,67460,70353,59728,65939,76553,68824,59182,120779,152514,141141,165870,141392,143921,159232,140383,129613,170312,149631,140004,60780,74681,73902,85843,71380,73432,72314,59609,62003,76639,69603,60773,72,2025-11-17T10:46:30.783-06:00
60222,74805,73330,69639,58948,67468,70375,59766,65929,76540,68820,59175,120709,152498,141159,165921,141447,143944,159297,140438,129643,170279,149603,140011,60747,74661,73907,85878,71408,73458,72347,59643,62029,76625,69592,60769,72,2025-11-17T10:46:30.783-06:00
60232,74818,73307,69629,58949,67488,70405,59791,65938,76557,68794,59169,120721,152539,141136,165961,141436,143940,159333,140469,129684,170286,149580,139972,60763,74670,73908,85874,71410,73456,72365,59646,62052,76645,69588,60756,73,2025-11-17T10:46:30.869-06:00
60247,74835,73326,69653,58962,67498,70423,59819,65956,76563,68826,59183,120758,152530,141145,165956,141459,143978,159371,140512,129719,170307,149671,140043,60766,74694,73917,85882,71430,73480,72390,59675,62043,76658,69623,60794,73,2025-11-17T10:46:30.869-06:00
60264,74857,73351,69674,58979,67513,70434,59822,65966,76583,68817,59168,120792,152577,141175,165998,141504,144011,159353,140505,129767,170376,149594,140042,60807,74715,73947,85921,71446,73486,72397,59676,62085,76674,69624,60766,74,2025-11-17T10:46:30.958-06:00
60267,74851,73333,69665,58977,67502,70429,59842,65985,76595,68886,59248,120809,152565,141184,165975,141466,143970,159360,140553,129784,170417,149781,140213,60822,74739,73945,85910,71433,73470,72404,59704,62094,76736,69691,60864,74,2025-11-17T10:46:30.958-06:00
60219,74766,73252,69589,58852,67307,70329,59823,65982,76625,69017,59423,120748,152423,141033,165850,141344,143823,159188,140488,129718,170466,150068,140684,60735,74573,73812,85722,71291,73313,72327,59692,62116,76841,69894,61063,75,2025-11-17T10:46:30.995-06:00
60102,74577,73088,69495,58746,67122,70105,59744,65935,76602,69050,59470,120591,152151,140816,165698,141157,143726,158860,140339,129650,170480,150084,140820,60568,74337,73581,85509,71113,73093,72127,59612,62081,76856,69924,61122,75,2025-11-17T10:46:30.995-06:00
60064,74512,73037,69438,58723,67118,70007,59688,65908,76598,69038,59447,120561,152044,140771,165602,141105,143692,158709,140231,129610,170472,150070,140756,60510,74261,73505,85431,71088,73078,72025,59527,62033,76816,69879,61102,76,2025-11-17T10:46:31.049-06:00
60101,74577,73087,69486,58775,67227,70085,59664,65891,76603,68982,59387,120598,152177,140850,165699,141172,143762,158836,140230,129550,170457,149999,140623,60573,74358,73593,85517,71145,73172,72081,59528,61988,76749,69825,61009,76,2025-11-17T10:46:31.049-06:00
60160,74636,73120,69495,58814,67316,70139,59648,65884,76591,68985,59364,120687,152343,140911,165732,141203,143818,158986,140174,129534,170462,149992,140572,60640,74469,73656,85602,71193,73248,72141,59518,61935,76749,69817,60999,77,2025-11-17T10:46:31.234-06:00
60160,74665,73153,69502,58825,67314,70191,59642,65879,76606,68997,59378,120742,152368,140956,165770,141175,143817,158999,140200,129521,170520,150078,140578,60662,74468,73666,85588,71195,73245,72155,59510,61931,76754,69830,60997,77,2025-11-17T10:46:31.234-06:00
60169,74664,73128,69500,58796,67276,70134,59624,65876,76622,69029,59407,120757,152382,140964,165758,141190,143729,158954,140142,129546,170563,150173,140722,60648,74455,73645,85584,71176,73216,72118,59483,61932,76760,69882,61047,78,2025-11-17T10:46:31.266-06:00
60190,74683,73144,69496,58800,67314,70144,59607,65875,76630,69045,59422,120770,152388,140951,165714,141153,143793,158933,140124,129536,170546,150217,140763,60684,74477,73669,85585,71185,73234,72127,59467,61899,76766,69895,61054,78,2025-11-17T10:46:31.266-06:00
60191,74678,73127,69493,58791,67284,70146,59592,65877,76645,69064,59442,120819,152414,140975,165721,141170,143778,158949,140104,129506,170601,150279,140782,60698,74488,73673,85571,71169,73218,72114,59469,61903,76770,69919,61079,79,2025-11-17T10:46:31.289-06:00
60183,74661,73110,69491,58772,67260,70136,59586,65865,76640,69075,59469,120771,152388,140943,165736,141126,143735,158868,140093,129516,170600,150316,140921,60674,74457,73631,85546,71124,73190,72094,59456,61900,76787,69948,61098,79,2025-11-17T10:46:31.289-06:00
60196,74655,73097,69463,58771,67260,70106,59580,65856,76648,69105,59489,120800,152404,140922,165725,141104,143726,158822,140056,129520,170663,150384,140956,60679,74455,73614,85525,71125,73172,72082,59440,61888,76816,69969,61114,80,2025-11-17T10:46:31.319-06:00
60179,74648,73117,69475,58775,67280,70126,59581,65855,76650,69100,59472,120821,152388,140950,165736,141111,143764,158862,140041,129506,170627,150310,140949,60686,74480,73639,85536,71139,73203,72083,59446,61885,76786,69914,61102,80,2025-11-17T10:46:31.319-06:00
60198,74684,73153,69493,58802,67309,70161,59585,65848,76634,69053,59439,120842,152473,141001,165763,141170,143774,158922,140051,129501,170607,150269,140812,60703,74504,73670,85596,71167,73241,72103,59434,61873,76746,69875,61063,81,2025-11-17T10:46:31.436-06:00
60228,74718,73150,69507,58811,67371,70206,59604,65846,76638,69043,59415,120864,152491,141024,165814,141233,143805,158997,140110,129501,170585,150266,140782,60722,74531,73707,85605,71211,73264,72141,59449,61850,76723,69870,61033,81,2025-11-17T10:46:31.436-06:00
60223,74728,73163,69512,58820,67357,70224,59609,65859,76626,69030,59397,120902,152563,141050,165825,141220,143810,159007,140125,129489,170593,150275,140763,60727,74564,73700,85620,71210,73284,72178,59456,61862,76694,69846,61033,82,2025-11-17T10:46:31.470-06:00
60223,74733,73192,69536,58835,67378,70245,59605,65839,76586,69005,59368,120885,152591,141041,165869,141250,143816,159054,140147,129417,170535,150147,140633,60729,74568,73719,85647,71233,73307,72202,59477,61821,76663,69816,60985,82,2025-11-17T10:46:31.470-06:00
60211,74736,73196,69554,58851,67401,70276,59614,65847,76606,68994,59367,120862,152566,141051,165877,141254,143780,159052,140164,129449,170526,150155,140611,60720,74546,73751,85696,71265,73320,72230,59480,61861,76641,69799,60983,83,2025-11-17T10:46:31.530-06:00
60215,74737,73188,69542,58846,67394,70278,59632,65846,76604,68991,59353,120866,152609,141086,165894,141227,143813,159106,140156,129466,170528,150143,140608,60724,74578,73749,85686,71269,73324,72227,59480,61848,76653,69788,60957,83,2025-11-17T10:46:31.530-06:00
60206,74738,73177,69525,58834,67395,70295,59618,65837,76613,69003,59380,120895,152583,141086,165856,141219,143788,159095,140145,129472,170552,150186,140641,60716,74578,73736,85665,71252,73322,72227,59490,61835,76653,69812,60992,84,2025-11-17T10:46:31.590-06:00
60222,74743,73174,69544,58851,67383,70261,59614,65839,76616,69008,59381,120900,152602,141131,165874,141242,143823,159073,140125,129456,170550,150193,140679,60734,74566,73756,85688,71263,73326,72223,59471,61827,76650,69824,60990,84,2025-11-17T10:46:31.590-06:00
60238,74758,73200,69556,58854,67416,70258,59602,65849,76604,69014,59375,120916,152630,141100,165874,141246,143819,159042,140098,129463,170540,150177,140668,60744,74594,73759,85696,71267,73338,72215,59461,61847,76658,69823,60995,85,2025-11-17T10:46:31.680-06:00
60242,74766,73214,69572,58856,67420,70285,59624,65844,76625,69021,59362,120929,152616,141127,165911,141260,143797,159087,140137,129488,170600,150251,140725,60758,74602,73772,85716,71281,73346,72238,59473,61847,76675,69845,61010,85,2025-11-17T10:46:31.680-06:00
60258,74778,73202,69543,58858,67437,70289,59627,65859,76620,69009,59377,120978,152689,141106,165867,141263,143834,159131,140155,129507,170579,150231,140684,60779,74615,73785,85696,71273,73364,72238,59503,61858,76669,69785,61002,86,2025-11-17T10:46:31.741-06:00
60257,74773,73224,69571,58883,67473,70300,59638,65862,76628,68988,59359,120959,152678,141134,165921,141293,143847,159108,140162,129559,170584,150216,140629,60795,74636,73787,85734,71300,73372,72246,59486,61870,76664,69821,60976,86,2025-11-17T10:46:31.741-06:00
60263,74789,73227,69572,58883,67470,70319,59625,65891,76633,69020,59356,120992,152719,141160,165931,141311,143871,159131,140204,129574,170617,150236,140669,60798,74644,73808,85765,71318,73402,72256,59510,61883,76707,69834,60982,87,2025-11-17T10:46:31.801-06:00
60270,74805,73243,69568,58889,67465,70331,59660,65896,76641,69027,59377,121026,152718,141159,165907,141287,143862,159151,140246,129597,170597,150273,140670,60817,74655,73805,85747,71323,73399,72264,59524,61903,76703,69837,60995,87,2025-11-17T10:46:31.801-06:00
60303,74816,73225,69573,58894,67482,70338,59681,65917,76667,69048,59392,121065,152756,141154,165915,141288,143870,159150,140290,129688,170703,150297,140703,60846,74667,73819,85743,71321,73398,72299,59532,61944,76760,69885,61007,88,2025-11-17T10:46:31.888-06:00
60296,74826,73257,69596,58902,67474,70356,59691,65946,76674,69068,59409,121092,152767,141192,165943,141301,143885,159163,140305,129713,170715,150335,140736,60854,74679,73831,85764,71334,73412,72305,59560,61965,76788,69907,61020,88,2025-11-17T10:46:31.888-06:00
60256,74755,73172,69534,58834,67333,70255,59680,65948,76689,69162,59532,121002,152612,141045,165876,141194,143769,159017,140286,129701,170801,150468,141057,60793,74581,73712,85648,71239,73273,72245,59557,62008,76904,70048,61184,89,2025-11-17T10:46:31.950-06:00
60146,74560,73009,69435,58702,67118,70036,59647,65946,76701,69238,59629,120880,152330,140872,165690,140977,143646,158704,140200,129702,170811,150621,141343,60631,74332,73500,85432,71041,73057,72060,59511,62015,76944,70103,61315,89,2025-11-17T10:46:31.950-06:00
60090,74470,72950,69377,58678,67108,69945,59615,65899,76679,69187,59578,120822,152202,140792,165631,140975,143631,158577,140144,129664,170708,150427,141230,60551,74239,73415,85336,70994,73046,71979,59471,61980,76893,70088,61251,90,2025-11-17T10:46:32.009-06:00
60123,74531,73027,69439,58760,67199,70006,59614,65920,76672,69131,59517,120853,152354,140915,165702,141045,143714,158730,140155,129669,170778,150429,140998,60589,74329,73503,85432,71074,73147,72026,59465,61963,76884,70006,61162,90,2025-11-17T10:46:32.009-06:00
60161,74607,73077,69457,58771,67283,70108,59612,65905,76667,69128,59511,120924,152478,140993,165784,141079,143760,158842,140200,129640,170749,150477,140997,60675,74425,73577,85516,71129,73212,72086,59484,61936,76828,69990,61144,91,2025-11-17T10:46:32.069-06:00
60173,74620,73075,69479,58787,67281,70134,59603,65868,76658,69108,59480,120946,152521,140991,165794,141084,143736,158910,140192,129591,170664,150413,140929,60679,74442,73597,85521,71140,73205,72118,59472,61889,76791,69958,61112,91,2025-11-17T10:46:32.069-06:00
60162,74605,73068,69469,58773,67283,70104,59571,65892,76656,69114,59481,120903,152462,140987,165758,141068,143713,158857,140127,129580,170751,150428,140942,60657,74410,73562,85510,71128,73194,72085,59449,61886,76811,69985,61121,92,2025-11-17T10:46:32.129-06:00
60165,74619,73077,69463,58774,67290,70104,59578,65868,76664,69127,59481,120885,152507,141018,165837,141077,143701,158857,140129,129587,170766,150451,140969,60658,74440,73607,85510,71133,73209,72094,59450,61886,76790,69965,61135,92,2025-11-17T10:46:32.129-06:00
60189,74644,73079,69458,58767,67292,70142,59572,65850,76663,69153,59503,120936,152586,141025,165774,141058,143677,158886,140145,129538,170726,150472,141004,60695,74452,73604,85521,71139,73215,72100,59416,61850,76775,69989,61138,93,2025-11-17T10:46:32.219-06:00
60176,74645,73082,69480,58758,67286,70116,59568,65879,76672,69134,59512,120928,152553,141006,165820,141058,143689,158858,140128,129564,170769,150488,140989,60675,74438,73604,85522,71154,73224,72102,59426,61859,76804,69998,61142,93,2025-11-17T10:46:32.219-06:00
60182,74625,73075,69450,58757,67279,70113,59555,65854,76643,69165,59512,120914,152573,141007,165802,141048,143659,158838,140103,129538,170774,150494,141064,60676,74430,73587,85506,71120,73217,72094,59413,61851,76781,69999,61167,94,2025-11-17T10:46:32.285-06:00
60176,74635,73083,69468,58747,67291,70109,59543,65846,76662,69120,59497,120911,152546,141014,165786,141041,143688,158814,140089,129480,170728,150512,140993,60677,74453,73589,85505,71137,73213,72079,59410,61814,76742,69983,61137,94,2025-11-17T10:46:32.285-06:00
60185,74640,73108,69468,58786,67341,70156,59539,65828,76642,69077,59447,120960,152585,141036,165805,141073,143701,158905,140084,129498,170688,150398,140866,60674,74474,73631,85550,71145,73233,72124,59410,61795,76707,69920,61083,95,2025-11-17T10:46:32.370-06:00
60198,74677,73117,69506,58810,67342,70180,59546,65837,76622,69053,59429,120970,152641,141088,165842,141105,143739,158953,140086,129489,170659,150277,140765,60689,74507,73657,85590,71187,73284,72153,59426,61801,76664,69863,61030,95,2025-11-17T10:46:32.370-06:00
60210,74692,73133,69499,58812,67367,70192,59560,65844,76649,69082,59445,121001,152676,141104,165876,141100,143749,158961,140098,129511,170725,150412,140811,60721,74533,73672,85603,71205,73283,72161,59424,61802,76708,69924,61058,96,2025-11-17T10:46:32.399-06:00
60219,74713,73132,69492,58797,67381,70201,59558,65815,76606,69067,59437,121016,152680,141116,165818,141069,143721,158987,140125,129470,170626,150377,140777,60733,74536,73692,85590,71185,73286,72150,59412,61780,76666,69879,61042,96,2025-11-17T10:46:32.399-06:00
60238,74705,73138,69492,58826,67381,70214,59551,65817,76615,69064,59431,121032,152706,141099,165832,141099,143723,158939,140099,129510,170644,150393,140792,60734,74552,73698,85615,71210,73291,72160,59416,61802,76656,69903,61048,97,2025-11-17T10:46:32.494-06:00
