660 1,660 2,660 3,660 4,660 5,660 6,660 7,660 8,660 9,660 10,660 11,660 12,940 1,940 2,940 3,940 4,940 5,940 6,940 7,940 8,940 9,940 10,940 11,940 12,850 1,850 2,850 3,850 4,850 5,850 6,850 7,850 8,850 9,850 10,850 11,850 12,pkt_counter,timestamp_iso
57836,72693,68365,70059,65322,76739,79203,63122,57971,67597,60111,53762,122504,168781,172043,218122,191471,218455,234014,210509,182974,179195,154928,148750,60148,66476,73111,78305,73197,84071,85430,65243,54447,64534,60003,54722,74,2025-11-17T10:51:04.677-06:00
57849,72727,68382,70078,65329,76748,79185,63113,57965,67580,60094,53766,122490,168784,172061,218107,191437,218399,234027,210518,182941,179141,154866,148732,60159,66527,73128,78306,73194,84077,85423,65234,54429,64527,59983,54709,74,2025-11-17T10:51:04.677-06:00
57852,72744,68392,70070,65327,76746,79173,63097,57967,67572,60057,53736,122496,168793,172055,218121,191382,218444,234017,210477,182896,179095,154812,148675,60170,66541,73142,78315,73189,84076,85424,65237,54449,64505,59975,54657,75,2025-11-17T10:51:04.737-06:00
57847,72752,68408,70076,65315,76736,79200,63098,57956,67573,60065,53734,122490,168764,172078,218067,191371,218425,233970,210530,182887,179036,154829,148673,60163,66552,73155,78326,73175,84093,85427,65235,54443,64495,59961,54690,75,2025-11-17T10:51:04.737-06:00
57854,72746,68411,70084,65331,76750,79193,63106,57960,67552,60078,53751,122510,168765,172096,218053,191385,218402,234008,210532,182792,179027,154802,148667,60178,66567,73178,78339,73204,84075,85437,65236,54438,64487,59960,54693,76,2025-11-17T10:51:04.798-06:00
57846,72752,68416,70073,65343,76748,79202,63110,57967,67558,60082,53757,122489,168778,172113,218057,191422,218383,233994,210556,182818,179005,154791,148702,60174,66577,73188,78345,73209,84080,85451,65257,54449,64487,59972,54711,76,2025-11-17T10:51:04.798-06:00
57865,72761,68435,70101,65332,76734,79199,63123,57962,67547,60057,53744,122494,168793,172096,218096,191393,218389,234054,210628,182797,178987,154764,148661,60172,66586,73197,78361,73221,84087,85463,65261,54443,64481,59949,54704,77,2025-11-17T10:51:04.862-06:00
57855,72756,68436,70102,65342,76748,79217,63124,57975,67554,60058,53751,122486,168791,172105,218081,191459,218389,234116,210663,182759,178962,154751,148665,60168,66591,73217,78379,73233,84101,85469,65265,54445,64484,59943,54699,77,2025-11-17T10:51:04.862-06:00
57838,72761,68429,70117,65345,76749,79213,63122,57960,67535,60053,53743,122483,168791,172067,218124,191419,218401,234102,210642,182740,178941,154714,148642,60173,66599,73206,78377,73231,84101,85465,65265,54440,64476,59929,54686,78,2025-11-17T10:51:04.917-06:00
57864,72778,68450,70109,65353,76723,79234,63133,57980,67529,60063,53724,122492,168821,172113,218087,191482,218373,234083,210699,182762,178957,154712,148612,60187,66629,73217,78392,73254,84088,85471,65276,54457,64481,59923,54667,78,2025-11-17T10:51:04.917-06:00
57888,72781,68462,70114,65362,76736,79224,63151,57970,67531,60032,53708,122491,168773,172124,218083,191477,218411,234037,210700,182705,178882,154674,148607,60208,66646,73230,78380,73264,84115,85490,65274,54459,64463,59908,54649,79,2025-11-17T10:51:05.014-06:00
57886,72799,68462,70129,65373,76768,79251,63151,57973,67525,60023,53701,122517,168781,172128,218044,191499,218423,234097,210773,182754,178865,154659,148576,60232,66672,73241,78393,73288,84138,85493,65295,54482,64461,59898,54631,79,2025-11-17T10:51:05.014-06:00
57918,72826,68476,70123,65380,76757,79243,63172,57979,67510,59998,53673,122538,168803,172136,218006,191467,218441,234081,210813,182767,178807,154567,148544,60250,66681,73263,78403,73272,84123,85510,65317,54494,64462,59880,54614,80,2025-11-17T10:51:05.097-06:00
57927,72843,68499,70131,65385,76780,79241,63177,57995,67515,60005,53678,122554,168839,172103,218052,191489,218495,234154,210854,182797,178853,154655,148596,60266,66705,73274,78422,73282,84155,85522,65314,54494,64467,59877,54606,80,2025-11-17T10:51:05.097-06:00
57924,72834,68505,70150,65404,76758,79251,63187,58011,67510,60011,53682,122581,168834,172165,218066,191532,218483,234132,210880,182812,178805,154620,148566,60277,66727,73301,78439,73295,84160,85534,65330,54518,64469,59877,54634,81,2025-11-17T10:51:05.130-06:00
57942,72836,68518,70138,65400,76772,79270,63199,58020,67525,60012,53683,122579,168857,172161,218069,191528,218514,234161,211011,182855,178833,154607,148564,60294,66743,73291,78458,73307,84169,85565,65375,54554,64459,59886,54639,81,2025-11-17T10:51:05.130-06:00
57936,72845,68505,70151,65424,76782,79275,63238,58011,67501,59993,53690,122576,168837,172166,218090,191577,218524,234167,211082,182883,178776,154622,148547,60278,66756,73320,78446,73327,84209,85600,65391,54551,64480,59880,54626,82,2025-11-17T10:51:05.189-06:00
57930,72851,68517,70160,65413,76803,79310,63235,58024,67509,60023,53706,122570,168876,172207,218133,191615,218541,234178,211134,182895,178746,154610,148593,60262,66746,73328,78475,73362,84213,85595,65413,54557,64476,59904,54657,82,2025-11-17T10:51:05.189-06:00
57930,72825,68514,70164,65425,76779,79310,63258,58033,67528,60050,53737,122543,168839,172204,218214,191675,218546,234242,211236,182914,178802,154644,148601,60260,66741,73333,78507,73388,84203,85620,65424,54570,64492,59939,54692,83,2025-11-17T10:51:05.249-06:00
57846,72718,68470,70157,65424,76785,79332,63285,58049,67599,60146,53808,122482,168848,172189,218237,191711,218547,234273,211280,182867,178905,154793,148683,60174,66646,73277,78517,73375,84192,85630,65431,54547,64539,60040,54790,83,2025-11-17T10:51:05.249-06:00
57763,72576,68387,70108,65385,76764,79329,63298,58050,67653,60205,53864,122431,168736,172089,218247,191706,218632,234286,211247,182843,179004,154912,148751,60029,66477,73192,78455,73334,84161,85550,65370,54513,64602,60124,54841,84,2025-11-17T10:51:05.337-06:00
57762,72573,68369,70116,65370,76744,79290,63288,58047,67653,60193,53851,122408,168744,172046,218221,191667,218587,234283,211197,182853,178988,154876,148732,60018,66472,73162,78419,73308,84117,85512,65314,54508,64583,60122,54838,84,2025-11-17T10:51:05.337-06:00
57806,72627,68379,70112,65372,76745,79288,63276,58021,67602,60164,53832,122435,168811,172035,218161,191672,218575,234179,211222,182836,178841,154833,148669,60078,66543,73180,78410,73310,84131,85502,65330,54499,64551,60080,54801,85,2025-11-17T10:51:05.399-06:00
57838,72681,68410,70128,65357,76736,79255,63243,58000,67593,60157,53825,122487,168793,172036,218100,191637,218553,234174,211111,182819,178846,154755,148679,60126,66613,73209,78419,73287,84119,85492,65313,54481,64527,60048,54790,85,2025-11-17T10:51:05.399-06:00
57822,72682,68409,70114,65342,76724,79273,63213,57980,67588,60146,53825,122462,168775,172059,218139,191620,218460,234153,211047,182743,178795,154747,148645,60111,66603,73226,78427,73286,84085,85494,65294,54465,64512,60045,54787,86,2025-11-17T10:51:05.463-06:00
57811,72657,68404,70098,65346,76717,79243,63209,57968,67583,60152,53817,122413,168743,172006,218135,191618,218440,234072,210957,182714,178776,154729,148632,60075,66586,73198,78416,73282,84065,85489,65260,54427,64497,60065,54798,86,2025-11-17T10:51:05.463-06:00
57818,72663,68394,70085,65347,76708,79234,63175,57962,67576,60149,53830,122408,168738,171993,218069,191566,218440,234080,210902,182681,178747,154744,148657,60099,66597,73207,78418,73286,84063,85471,65227,54417,64484,60047,54809,87,2025-11-17T10:51:05.542-06:00
57837,72692,68411,70108,65346,76693,79246,63169,57943,67569,60158,53844,122393,168755,172019,218062,191616,218399,234062,210828,182702,178766,154740,148636,60099,66614,73214,78419,73275,84054,85465,65235,54426,64474,60049,54816,87,2025-11-17T10:51:05.542-06:00
57808,72663,68400,70091,65345,76685,79234,63158,57943,67573,60159,53831,122359,168712,172003,218085,191599,218380,234075,210840,182682,178703,154695,148665,60064,66584,73208,78434,73289,84057,85464,65225,54414,64482,60051,54818,88,2025-11-17T10:51:05.615-06:00
57813,72657,68402,70100,65321,76693,79245,63156,57932,67558,60162,53830,122355,168752,171983,218080,191604,218363,234043,210841,182666,178731,154760,148613,60060,66576,73220,78417,73301,84050,85459,65220,54402,64481,60068,54812,88,2025-11-17T10:51:05.615-06:00
57834,72663,68398,70082,65326,76697,79217,63143,57938,67572,60162,53806,122375,168725,171982,218059,191619,218371,234004,210789,182723,178719,154663,148540,60084,66607,73215,78402,73275,84046,85453,65210,54421,64470,60064,54817,89,2025-11-17T10:51:05.668-06:00
57852,72691,68417,70095,65324,76695,79211,63141,57944,67578,60160,53851,122389,168713,172002,218050,191590,218341,233931,210747,182703,178709,154690,148641,60114,66633,73237,78434,73274,84034,85441,65196,54416,64465,60059,54813,89,2025-11-17T10:51:05.668-06:00
57861,72718,68424,70091,65328,76676,79213,63137,57937,67573,60170,53849,122422,168751,172007,218030,191583,218334,233935,210718,182753,178673,154686,148650,60138,66668,73250,78413,73280,84050,85453,65219,54412,64467,60056,54816,90,2025-11-17T10:51:05.734-06:00
57864,72750,68430,70103,65334,76680,79221,63136,57939,67577,60175,53855,122430,168729,171981,218029,191527,218353,233942,210719,182803,178684,154668,148606,60167,66664,73268,78421,73288,84036,85463,65208,54427,64475,60071,54830,90,2025-11-17T10:51:05.734-06:00
57885,72755,68463,70119,65338,76690,79231,63134,57933,67580,60172,53857,122445,168725,171995,218042,191556,218324,233943,210681,182785,178660,154672,148624,60182,66695,73255,78420,73271,84032,85442,65201,54421,64470,60072,54830,91,2025-11-17T10:51:05.787-06:00
57891,72773,68439,70107,65343,76688,79218,63126,57933,67578,60176,53862,122447,168697,172005,218013,191566,218367,233943,210667,182794,178653,154688,148628,60185,66715,73299,78428,73282,84042,85443,65192,54422,64468,60078,54835,91,2025-11-17T10:51:05.787-06:00
57889,72762,68458,70108,65349,76685,79231,63119,57945,67591,60167,53862,122452,168703,172003,218010,191542,218330,233915,210653,182776,178662,154674,148596,60191,66697,73283,78433,73285,84050,85441,65191,54413,64474,60072,54831,92,2025-11-17T10:51:05.883-06:00
57884,72757,68469,70113,65355,76722,79241,63125,57950,67580,60173,53860,122417,168719,172030,217977,191556,218342,233869,210688,182822,178666,154660,148606,60168,66714,73284,78443,73306,84047,85452,65204,54427,64471,60065,54828,92,2025-11-17T10:51:05.883-06:00
57896,72766,68466,70122,65344,76700,79233,63130,57939,67589,60182,53874,122408,168692,172014,217986,191559,218360,233909,210654,182798,178657,154670,148600,60182,66718,73308,78445,73280,84024,85470,65187,54418,64463,60076,54851,93,2025-11-17T10:51:05.942-06:00
57895,72783,68504,70139,65351,76702,79235,63113,57945,67587,60185,53866,122434,168723,172021,218015,191536,218321,233899,210656,182820,178629,154664,148615,60189,66758,73311,78454,73281,84040,85448,65189,54420,64482,60090,54857,93,2025-11-17T10:51:05.942-06:00
57928,72796,68494,70143,65365,76706,79251,63118,57960,67583,60178,53860,122423,168717,172059,218029,191584,218339,233898,210692,182867,178661,154669,148547,60201,66776,73317,78467,73298,84050,85469,65189,54438,64467,60056,54850,94,2025-11-17T10:51:06.024-06:00
57924,72792,68486,70147,65357,76715,79234,63120,57945,67584,60181,53875,122459,168730,172029,218004,191599,218332,233894,210658,182821,178664,154640,148570,60207,66792,73341,78466,73304,84049,85450,65191,54437,64474,60084,54862,94,2025-11-17T10:51:06.024-06:00
57934,72799,68528,70162,65368,76737,79234,63122,57947,67586,60197,53891,122413,168711,172035,218016,191619,218332,233849,210695,182899,178629,154625,148595,60218,66785,73368,78478,73328,84052,85474,65211,54459,64487,60087,54875,95,2025-11-17T10:51:06.063-06:00
57958,72851,68522,70159,65368,76730,79248,63138,57950,67604,60197,53878,122457,168731,172043,218015,191567,218370,233933,210735,182925,178636,154638,148582,60249,66810,73373,78486,73323,84055,85487,65207,54462,64480,60101,54871,95,2025-11-17T10:51:06.063-06:00
57952,72841,68529,70153,65388,76743,79263,63129,57975,67601,60208,53893,122439,168728,172028,217981,191629,218355,233887,210728,182944,178649,154613,148612,60235,66829,73360,78478,73322,84070,85506,65224,54466,64487,60092,54869,96,2025-11-17T10:51:06.117-06:00
57973,72863,68553,70190,65382,76752,79265,63135,57977,67592,60195,53887,122455,168685,172040,218006,191660,218355,233906,210796,182990,178626,154619,148588,60264,66850,73377,78499,73344,84075,85501,65240,54486,64500,60085,54875,96,2025-11-17T10:51:06.117-06:00
57967,72877,68560,70192,65406,76762,79281,63160,57991,67586,60176,53881,122470,168720,172028,217998,191672,218421,233948,210793,182994,178629,154589,148573,60277,66874,73402,78507,73334,84093,85520,65237,54495,64482,60082,54863,97,2025-11-17T10:51:06.181-06:00
57970,72872,68561,70184,65385,76755,79287,63155,57979,67560,60183,53860,122461,168711,172058,218015,191723,218385,233919,210829,183038,178619,154565,148567,60288,66877,73397,78525,73356,84105,85530,65256,54498,64480,60064,54854,97,2025-11-17T10:51:06.181-06:00
57944,72826,68553,70174,65390,76759,79268,63160,57990,67602,60232,53908,122449,168704,172017,218037,191755,218414,233965,210903,183025,178659,154678,148616,60236,66836,73403,78518,73386,84095,85518,65271,54505,64497,60134,54906,98,2025-11-17T10:51:06.267-06:00
57857,72711,68479,70154,65377,76743,79311,63203,58017,67690,60323,53992,122373,168638,172019,218079,191752,218439,233991,210886,183039,178804,154842,148717,60146,66710,73319,78504,73346,84055,85507,65251,54493,64578,60258,55001,98,2025-11-17T10:51:06.267-06:00
57790,72601,68424,70126,65342,76731,79278,63194,58018,67725,60350,53990,122323,168595,171911,218087,191679,218490,233953,210962,183024,178887,154850,148701,60032,66570,73248,78456,73277,84000,85452,65203,54457,64602,60284,55019,99,2025-11-17T10:51:06.328-06:00
57802,72590,68398,70098,65329,76721,79269,63181,58014,67704,60322,53977,122341,168587,171896,218004,191627,218452,233957,210898,182986,178839,154807,148680,60039,66596,73229,78438,73263,83995,85412,65164,54460,64578,60249,54969,99,2025-11-17T10:51:06.328-06:00
57864,72687,68445,70134,65333,76729,79255,63165,58012,67671,60288,53943,122376,168673,171896,217969,191612,218505,233956,210903,183047,178791,154771,148668,60134,66694,73254,78443,73270,83993,85403,65165,54464,64557,60203,54939,100,2025-11-17T10:51:06.395-06:00
57887,72730,68464,70154,65345,76722,79254,63159,58023,67669,60297,53945,122413,168645,171947,218019,191697,218458,233905,210958,183069,178789,154752,148623,60159,66750,73300,78444,73272,84010,85430,65177,54499,64554,60199,54945,100,2025-11-17T10:51:06.395-06:00
57880,72729,68446,70121,65341,76747,79256,63183,58022,67686,60290,53947,122405,168661,171909,217962,191702,218449,233944,210965,183113,178797,154728,148639,60136,66728,73296,78443,73269,84009,85431,65188,54501,64573,60210,54952,101,2025-11-17T10:51:06.477-06:00
57859,72707,68457,70144,65335,76758,79248,63194,58019,67668,60293,53943,122337,168671,171968,218052,191718,218485,233973,211023,183130,178798,154730,148640,60112,66713,73303,78457,73286,84012,85441,65196,54507,64575,60206,54955,101,2025-11-17T10:51:06.477-06:00
57869,72711,68461,70139,65350,76737,79237,63198,58016,67654,60276,53950,122369,168658,171938,218050,191683,218527,233918,211026,183116,178696,154707,148590,60143,66736,73300,78493,73294,84004,85450,65185,54497,64551,60188,54943,102,2025-11-17T10:51:06.508-06:00
57872,72717,68471,70125,65343,76728,79233,63176,58002,67661,60291,53969,122380,168628,171913,218007,191714,218466,233975,211031,183096,178725,154691,148628,60134,66742,73306,78469,73291,84007,85425,65172,54483,64546,60209,54967,102,2025-11-17T10:51:06.508-06:00
57889,72724,68465,70139,65343,76718,79246,63143,57995,67672,60286,53950,122395,168632,171906,218042,191684,218485,233982,210994,182985,178744,154729,148613,60136,66755,73308,78467,73286,84002,85412,65173,54457,64545,60204,54966,103,2025-11-17T10:51:06.597-06:00
57882,72729,68448,70142,65340,76720,79233,63143,57953,67637,60297,53963,122355,168612,171866,217993,191667,218498,233932,210943,182914,178683,154703,148604,60139,66734,73313,78451,73281,83972,85409,65128,54434,64538,60200,54955,103,2025-11-17T10:51:06.597-06:00
57872,72716,68456,70118,65335,76719,79223,63103,57935,67622,60271,53946,122332,168624,171884,217949,191681,218430,233901,210832,182875,178608,154646,148573,60129,66751,73290,78431,73273,83969,85393,65113,54410,64483,60173,54915,104,2025-11-17T10:51:06.664-06:00
57885,72743,68485,70140,65346,76728,79201,63083,57938,67621,60249,53922,122351,168641,171893,217918,191651,218419,233873,210805,182891,178567,154611,148534,60146,66773,73326,78451,73270,83972,85383,65092,54431,64497,60146,54908,104,2025-11-17T10:51:06.664-06:00
57905,72768,68490,70139,65329,76714,79185,63065,57923,67614,60237,53909,122339,168589,171850,217940,191630,218411,233827,210791,182891,178562,154642,148532,60156,66769,73325,78469,73261,83962,85387,65092,54420,64476,60134,54912,105,2025-11-17T10:51:06.718-06:00
57912,72771,68493,70144,65341,76714,79194,63057,57927,67609,60250,53916,122343,168613,171854,217932,191611,218407,233843,210817,182888,178530,154565,148524,60167,66797,73325,78436,73256,83949,85374,65090,54423,64465,60138,54886,105,2025-11-17T10:51:06.718-06:00
57940,72804,68507,70123,65342,76726,79192,63039,57934,67612,60237,53915,122357,168598,171840,217841,191582,218355,233808,210747,182893,178536,154566,148517,60194,66818,73321,78431,73241,83959,85380,65074,54418,64475,60131,54903,106,2025-11-17T10:51:06.784-06:00
57946,72800,68505,70150,65329,76721,79189,63049,57940,67604,60238,53917,122350,168588,171865,217872,191621,218341,233738,210717,182888,178545,154574,148489,60194,66823,73343,78461,73261,83945,85369,65078,54415,64473,60130,54910,106,2025-11-17T10:51:06.784-06:00
57941,72803,68510,70138,65340,76742,79178,63029,57924,67610,60253,53917,122312,168563,171851,217842,191603,218380,233738,210658,182873,178517,154553,148534,60200,66824,73343,78465,73271,83963,85365,65055,54404,64476,60137,54918,107,2025-11-17T10:51:06.869-06:00
57939,72797,68518,70140,65333,76726,79208,63029,57926,67614,60252,53919,122312,168573,171853,217854,191603,218383,233772,210724,182903,178522,154561,148472,60188,66843,73352,78455,73266,83950,85377,65067,54411,64469,60149,54916,107,2025-11-17T10:51:06.869-06:00
57953,72814,68523,70154,65352,76735,79212,63034,57912,67618,60262,53912,122326,168540,171836,217865,191656,218333,233749,210722,182931,178474,154484,148463,60206,66840,73358,78466,73267,83937,85375,65056,54406,64474,60149,54926,108,2025-11-17T10:51:06.956-06:00
57952,72802,68521,70167,65350,76727,79204,63022,57922,67625,60275,53958,122323,168536,171825,217887,191610,218351,233756,210690,182961,178506,154579,148525,60199,66849,73351,78467,73264,83933,85372,65051,54412,64484,60182,54955,108,2025-11-17T10:51:06.956-06:00
57976,72819,68531,70163,65349,76740,79205,63021,57924,67624,60269,53961,122329,168553,171861,217831,191637,218316,233728,210659,182934,178487,154561,148502,60228,66841,73364,78456,73286,83963,85376,65054,54420,64468,60173,54947,109,2025-11-17T10:51:06.987-06:00
57973,72843,68543,70161,65351,76727,79200,63009,57916,67606,60268,53954,122307,168520,171816,217836,191612,218302,233662,210631,182916,178502,154529,148492,60230,66863,73370,78467,73277,83941,85375,65045,54410,64471,60168,54954,109,2025-11-17T10:51:06.987-06:00
57987,72849,68565,70166,65361,76744,79202,63007,57925,67628,60263,53945,122318,168540,171801,217820,191635,218315,233726,210605,182910,178439,154516,148483,60242,66877,73366,78458,73265,83940,85389,65027,54404,64453,60163,54954,110,2025-11-17T10:51:07.047-06:00
57987,72835,68560,70159,65350,76730,79176,62995,57903,67604,60276,53945,122326,168515,171788,217845,191599,218332,233681,210556,182939,178413,154539,148475,60246,66873,73360,78460,73278,83938,85363,65013,54393,64447,60154,54949,110,2025-11-17T10:51:07.047-06:00
57940,72786,68521,70150,65338,76706,79207,63001,57924,67654,60324,54005,122247,168477,171738,217834,191598,218306,233674,210566,182906,178510,154623,148563,60188,66802,73346,78469,73259,83887,85365,65008,54380,64500,60228,55010,111,2025-11-17T10:51:07.110-06:00
57844,72643,68450,70114,65297,76706,79191,63009,57916,67718,60399,54051,122190,168387,171702,217851,191595,218313,233635,210545,182854,178597,154755,148606,60059,66669,73263,78433,73211,83849,85319,64970,54342,64534,60323,55067,111,2025-11-17T10:51:07.110-06:00
57822,72591,68409,70087,65282,76677,79158,62991,57911,67724,60406,54055,122153,168381,171629,217790,191525,218266,233631,210443,182847,178587,154755,148607,59994,66580,73194,78378,73172,83811,85235,64905,54333,64551,60341,55075,112,2025-11-17T10:51:07.196-06:00
57842,72639,68411,70092,65291,76670,79146,62962,57909,67698,60381,54026,122147,168383,171615,217810,191506,218267,233574,210463,182873,178559,154702,148565,60036,66619,73192,78351,73171,83806,85207,64898,54348,64527,60291,55052,112,2025-11-17T10:51:07.196-06:00
57887,72667,68445,70096,65282,76670,79153,62962,57879,67671,60353,54006,122172,168406,171625,217761,191498,218258,233584,210482,182867,178468,154629,148529,60081,66690,73235,78381,73159,83818,85238,64907,54344,64498,60253,55022,113,2025-11-17T10:51:07.263-06:00
57890,72675,68433,70103,65289,76671,79146,62965,57909,67677,60360,54033,122176,168403,171643,217740,191523,218216,233543,210448,182912,178509,154659,148567,60080,66682,73229,78370,73169,83801,85230,64912,54349,64499,60277,55034,113,2025-11-17T10:51:07.263-06:00
57907,72672,68429,70095,65273,76674,79155,62983,57895,67670,60366,54016,122160,168368,171600,217746,191554,218244,233527,210493,182897,178472,154642,148540,60089,66684,73233,78365,73164,83800,85241,64906,54351,64497,60279,55040,114,2025-11-17T10:51:07.317-06:00
57913,72691,68440,70096,65283,76655,79140,62983,57893,67668,60370,54017,122187,168354,171586,217730,191481,218184,233537,210426,182852,178476,154623,148530,60101,66682,73226,78364,73151,83779,85225,64895,54325,64475,60259,55035,114,2025-11-17T10:51:07.317-06:00
57934,72726,68443,70077,65265,76641,79124,62944,57872,67650,60350,54020,122183,168359,171561,217644,191481,218230,233526,210377,182769,178465,154629,148509,60116,66714,73231,78356,73129,83769,85222,64886,54306,64476,60267,55045,115,2025-11-17T10:51:07.408-06:00
57939,72713,68444,70095,65254,76639,79115,62910,57853,67657,60361,54028,122175,168326,171565,217657,191438,218156,233481,210210,182731,178427,154600,148507,60128,66705,73236,78345,73134,83759,85213,64861,54286,64471,60260,55045,115,2025-11-17T10:51:07.408-06:00
57922,72713,68431,70075,65274,76645,79138,62912,57854,67647,60372,54042,122144,168336,171525,217637,191465,218188,233452,210256,182736,178413,154622,148496,60101,66675,73209,78330,73143,83761,85199,64836,54280,64459,60273,55041,116,2025-11-17T10:51:07.439-06:00
57929,72709,68444,70087,65259,76641,79104,62894,57854,67672,60369,54035,122169,168346,171507,217605,191461,218145,233347,210183,182746,178401,154554,148526,60111,66694,73211,78329,73121,83752,85152,64815,54299,64458,60266,55048,116,2025-11-17T10:51:07.439-06:00
57953,72747,68443,70101,65261,76616,79115,62896,57865,67655,60345,54033,122152,168321,171502,217555,191423,218082,233406,210180,182741,178364,154541,148495,60145,66723,73234,78329,73120,83745,85174,64820,54292,64463,60263,55037,117,2025-11-17T10:51:07.530-06:00
57947,72735,68452,70084,65270,76640,79112,62897,57858,67659,60334,54014,122190,168319,171517,217592,191426,218117,233362,210201,182734,178357,154522,148456,60144,66717,73232,78328,73120,83751,85173,64821,54284,64436,60232,55022,117,2025-11-17T10:51:07.530-06:00
57968,72781,68452,70078,65273,76627,79109,62887,57851,67641,60341,54007,122156,168282,171504,217551,191437,218106,233333,210171,182759,178337,154508,148465,60158,66743,73226,78313,73116,83746,85175,64813,54298,64417,60224,55026,118,2025-11-17T10:51:07.598-06:00
57973,72780,68463,70090,65271,76629,79080,62884,57853,67653,60357,54021,122175,168290,171483,217551,191435,218138,233343,210139,182748,178349,154512,148450,60168,66741,73216,78310,73128,83751,85163,64804,54299,64452,60241,55032,118,2025-11-17T10:51:07.598-06:00
57960,72761,68454,70091,65269,76634,79090,62878,57848,67635,60353,54025,122156,168277,171504,217564,191429,218058,233379,210177,182747,178303,154467,148449,60185,66748,73235,78304,73095,83724,85177,64810,54289,64425,60237,55021,119,2025-11-17T10:51:07.647-06:00
57954,72759,68458,70090,65262,76637,79094,62885,57854,67630,60319,54007,122139,168277,171487,217550,191401,218104,233329,210135,182773,178296,154442,148400,60160,66722,73243,78318,73122,83738,85154,64815,54303,64428,60219,55023,119,2025-11-17T10:51:07.647-06:00
57936,72732,68444,70080,65270,76625,79093,62883,57845,67636,60323,54018,122142,168279,171507,217487,191472,218071,233366,210159,182751,178255,154475,148410,60139,66708,73223,78324,73134,83759,85199,64828,54300,64430,60230,55019,120,2025-11-17T10:51:07.710-06:00
57948,72735,68449,70080,65280,76641,79108,62882,57856,67634,60345,54004,122152,168257,171521,217566,191474,218124,233334,210139,182751,178276,154467,148404,60142,66720,73240,78347,73113,83775,85198,64817,54300,64427,60229,55027,120,2025-11-17T10:51:07.710-06:00
57947,72748,68453,70103,65270,76646,79091,62876,57853,67631,60324,54006,122136,168301,171489,217561,191445,218120,233298,210122,182766,178263,154458,148405,60151,66730,73240,78327,73144,83758,85191,64820,54317,64428,60215,55023,121,2025-11-17T10:51:07.858-06:00
57958,72762,68460,70094,65292,76649,79120,62879,57861,67622,60319,54005,122147,168303,171532,217537,191482,218176,233316,210145,182775,178258,154404,148379,60156,66727,73244,78336,73140,83768,85201,64829,54305,64420,60199,55012,121,2025-11-17T10:51:07.858-06:00
57954,72738,68461,70100,65294,76654,79120,62881,57862,67617,60311,53992,122128,168274,171492,217526,191520,218124,233301,210117,182791,178214,154283,148370,60158,66730,73243,78339,73140,83753,85214,64826,54304,64408,60196,55001,122,2025-11-17T10:51:07.889-06:00
57915,72710,68432,70091,65291,76654,79127,62895,57860,67636,60334,54026,122098,168248,171507,217561,191540,218165,233365,210150,182710,178252,154435,148384,60128,66706,73241,78331,73169,83766,85223,64835,54298,64428,60247,55024,122,2025-11-17T10:51:07.889-06:00
57847,72617,68376,70064,65255,76622,79115,62896,57861,67681,60412,54052,122040,168214,171435,217541,191484,218159,233308,210101,182672,178353,154596,148459,60032,66587,73171,78317,73115,83701,85186,64802,54271,64475,60336,55081,123,2025-11-17T10:51:07.917-06:00
57794,72503,68297,70015,65225,76633,79098,62884,57864,67731,60451,54065,121982,168154,171388,217537,191410,218186,233303,210121,182674,178379,154635,148478,59938,66454,73084,78263,73054,83672,85121,64753,54254,64495,60337,55084,123,2025-11-17T10:51:07.917-06:00
57819,72512,68317,70022,65202,76604,79068,62878,57873,67722,60388,54042,122021,168204,171339,217467,191388,218172,233221,210059,182675,178319,154577,148418,59961,66466,73052,78238,73027,83658,85098,64726,54258,64473,60293,55045,124,2025-11-17T10:51:07.986-06:00
57845,72573,68339,70029,65230,76622,79060,62868,57858,67683,60370,54021,122035,168227,171380,217495,191423,218203,233212,210030,182667,178270,154477,148356,60006,66540,73074,78245,73040,83645,85083,64723,54276,64442,60266,55007,124,2025-11-17T10:51:07.986-06:00
57873,72598,68343,70019,65235,76619,79071,62887,57877,67679,60366,54008,122054,168251,171350,217465,191396,218177,233252,210032,182780,178284,154488,148385,60034,66570,73103,78259,73042,83642,85098,64742,54287,64453,60261,55006,125,2025-11-17T10:51:08.039-06:00
57868,72598,68354,70036,65241,76627,79061,62909,57877,67687,60378,54011,122070,168234,171371,217455,191435,218200,233255,210114,182767,178290,154485,148371,60046,66569,73106,78242,73032,83664,85103,64750,54293,64460,60259,55004,125,2025-11-17T10:51:08.039-06:00
57877,72610,68350,70040,65230,76623,79076,62899,57897,67679,60357,53986,122067,168208,171403,217443,191427,218239,233223,210079,182744,178269,154452,148327,60063,66579,73119,78224,73026,83666,85091,64741,54313,64457,60239,54984,126,2025-11-17T10:51:08.158-06:00
57906,72642,68370,70040,65239,76634,79053,62910,57886,67667,60359,53986,122111,168259,171411,217394,191424,218241,233197,210044,182787,178241,154414,148318,60102,66621,73125,78233,73027,83678,85105,64754,54307,64454,60210,54990,126,2025-11-17T10:51:08.158-06:00
57908,72664,68370,70042,65236,76626,79077,62896,57903,67684,60360,53993,122120,168263,171373,217415,191402,218245,233165,210025,182740,178228,154432,148323,60104,66610,73115,78219,73022,83666,85084,64746,54312,64457,60227,54984,127,2025-11-17T10:51:08.188-06:00
57890,72649,68356,70017,65243,76628,79079,62880,57890,67675,60362,54005,122107,168221,171373,217390,191445,218271,233153,209994,182651,178222,154417,148309,60102,66607,73114,78242,73010,83659,85078,64739,54277,64438,60241,54979,127,2025-11-17T10:51:08.188-06:00
57900,72643,68348,70042,65247,76633,79060,62865,57877,67667,60342,53969,122123,168258,171404,217374,191402,218256,233154,209949,182641,178163,154377,148290,60092,66611,73123,78221,73014,83672,85081,64712,54282,64432,60199,54947,128,2025-11-17T10:51:08.247-06:00
57911,72636,68352,70027,65235,76603,79052,62851,57865,67650,60325,53956,122104,168214,171399,217400,191391,218218,233062,209847,182627,178137,154336,148246,60107,66618,73112,78234,72998,83640,85050,64699,54270,64396,60179,54928,128,2025-11-17T10:51:08.247-06:00
57905,72659,68360,70046,65223,76610,79040,62840,57860,67627,60299,53938,122137,168275,171380,217390,191385,218207,233089,209862,182645,178089,154271,148230,60118,66623,73118,78206,73002,83652,85070,64717,54260,64388,60164,54910,129,2025-11-17T10:51:08.341-06:00
57924,72664,68369,70045,65245,76643,79050,62837,57858,67604,60283,53913,122129,168269,171415,217348,191435,218245,233060,209836,182601,178045,154288,148183,60130,66644,73122,78224,73018,83667,85082,64716,54264,64384,60123,54888,129,2025-11-17T10:51:08.341-06:00
57913,72684,68385,70044,65249,76632,79053,62854,57860,67603,60271,53914,122080,168241,171408,217360,191443,218242,233059,209781,182601,178038,154205,148163,60116,66616,73143,78225,73023,83674,85115,64714,54261,64365,60107,54879,130,2025-11-17T10:51:08.369-06:00
57923,72700,68395,70061,65261,76641,79063,62859,57878,67603,60264,53905,122102,168235,171421,217408,191466,218251,233066,209809,182631,178042,154206,148170,60132,66656,73155,78237,73025,83669,85108,64738,54292,64366,60100,54866,130,2025-11-17T10:51:08.369-06:00
57936,72692,68397,70068,65256,76642,79065,62855,57888,67598,60266,53907,122121,168246,171424,217379,191467,218322,233028,209809,182626,178054,154186,148163,60148,66667,73158,78232,73030,83689,85090,64736,54306,64363,60096,54863,131,2025-11-17T10:51:08.460-06:00
57933,72710,68413,70080,65271,76665,79098,62893,57892,67601,60261,53905,122126,168242,171419,217422,191547,218378,233108,209901,182641,178016,154173,148175,60134,66662,73174,78256,73065,83703,85164,64776,54318,64378,60087,54863,131,2025-11-17T10:51:08.460-06:00
57928,72699,68423,70084,65295,76664,79093,62908,57896,67599,60265,53897,122092,168301,171437,217408,191569,218400,233117,209827,182642,177982,154191,148182,60134,66668,73183,78256,73060,83714,85162,64787,54330,64372,60105,54857,132,2025-11-17T10:51:08.517-06:00
57947,72713,68440,70104,65300,76682,79102,62924,57927,67614,60266,53907,122122,168320,171473,217436,191575,218406,233145,209818,182712,177991,154183,148166,60152,66687,73204,78272,73070,83713,85184,64790,54350,64392,60094,54877,132,2025-11-17T10:51:08.517-06:00
57956,72728,68439,70095,65315,76692,79144,62942,57950,67620,60272,53899,122146,168315,171508,217494,191599,218479,233167,209864,182767,178045,154199,148186,60172,66694,73209,78273,73078,83748,85187,64815,54363,64405,60120,54867,133,2025-11-17T10:51:08.582-06:00
57965,72740,68449,70127,65330,76707,79146,62966,57985,67635,60290,53928,122161,168342,171503,217477,191654,218529,233154,209916,182840,178055,154200,148189,60189,66708,73218,78305,73088,83756,85213,64846,54391,64450,60138,54894,133,2025-11-17T10:51:08.582-06:00
57993,72756,68456,70111,65335,76719,79140,62999,58009,67641,60287,53928,122210,168351,171550,217414,191652,218568,233157,209913,182921,178125,154236,148211,60230,66739,73230,78281,73101,83783,85226,64872,54426,64462,60143,54901,134,2025-11-17T10:51:08.639-06:00
58003,72778,68471,70144,65338,76748,79155,63023,58014,67657,60293,53934,122215,168374,171551,217484,191715,218584,233199,209963,182903,178134,154157,148217,60225,66739,73241,78325,73118,83800,85247,64890,54451,64462,60138,54903,134,2025-11-17T10:51:08.639-06:00
57988,72754,68481,70143,65340,76751,79173,63032,58011,67639,60287,53926,122208,168380,171565,217534,191782,218668,233233,209960,182898,178101,154157,148195,60222,66737,73251,78318,73120,83810,85265,64908,54463,64467,60138,54902,135,2025-11-17T10:51:08.727-06:00
57972,72735,68441,70140,65361,76749,79173,63051,58026,67659,60332,53966,122206,168380,171584,217559,191853,218686,233272,210007,182886,178140,154244,148191,60212,66726,73257,78359,73145,83826,85271,64941,54456,64490,60191,54964,135,2025-11-17T10:51:08.727-06:00
57903,72640,68396,70129,65322,76745,79205,63082,58059,67753,60421,54030,122163,168360,171599,217643,191880,218779,233289,209964,182836,178303,154349,148292,60130,66619,73218,78351,73139,83803,85282,64934,54449,64556,60303,55004,136,2025-11-17T10:51:08.811-06:00
57841,72500,68316,70080,65300,76740,79204,63090,58048,67794,60483,54079,122097,168277,171486,217608,191853,218821,233348,209965,182801,178351,154481,148365,60017,66477,73106,78282,73081,83771,85228,64893,54421,64610,60367,55088,136,2025-11-17T10:51:08.811-06:00
57851,72491,68306,70077,65300,76732,79192,63081,58050,67772,60445,54067,122124,168314,171452,217606,191834,218812,233272,209896,182750,178302,154385,148378,60028,66482,73087,78270,73063,83735,85169,64855,54426,64593,60322,55062,137,2025-11-17T10:51:08.848-06:00
57902,72576,68335,70092,65317,76752,79185,63091,58036,67754,60419,54046,122151,168336,171479,217615,191938,218838,233233,209820,182729,178276,154397,148304,60102,66552,73118,78270,73092,83755,85215,64860,54446,64567,60312,55049,137,2025-11-17T10:51:08.848-06:00
57949,72634,68371,70096,65325,76725,79184,63095,58059,67746,60423,54044,122197,168389,171520,217562,191898,218847,233256,209839,182732,178262,154364,148285,60162,66623,73148,78282,73084,83766,85241,64893,54438,64552,60315,55053,138,2025-11-17T10:51:08.914-06:00
57950,72647,68365,70100,65326,76742,79186,63089,58046,67758,60440,54066,122226,168411,171527,217620,191957,218880,233279,209806,182676,178258,154383,148301,60178,66641,73156,78270,73092,83768,85235,64904,54436,64564,60329,55073,138,2025-11-17T10:51:08.914-06:00
57946,72647,68358,70096,65323,76748,79194,63071,58035,67756,60455,54069,122211,168389,171501,217553,191966,218862,233222,209727,182579,178260,154384,148329,60175,66635,73139,78286,73084,83772,85223,64888,54413,64554,60322,55069,139,2025-11-17T10:51:08.967-06:00
57972,72685,68368,70101,65318,76737,79169,63030,58006,67736,60442,54080,122198,168379,171514,217558,191923,218834,233224,209542,182470,178161,154340,148325,60207,66671,73162,78283,73074,83760,85216,64837,54392,64546,60317,55086,139,2025-11-17T10:51:08.967-06:00
57964,72664,68368,70085,65310,76725,79166,63013,57986,67746,60461,54113,122171,168361,171488,217548,191946,218835,233111,209440,182343,178148,154344,148315,60177,66622,73156,78263,73084,83726,85206,64815,54373,64528,60346,55098,140,2025-11-17T10:51:09.064-06:00
57945,72637,68357,70073,65305,76706,79186,63002,57987,67755,60458,54098,122166,168318,171516,217588,191996,218823,233112,209420,182324,178132,154338,148298,60149,66624,73147,78283,73088,83731,85199,64813,54371,64534,60340,55110,140,2025-11-17T10:51:09.064-06:00
57930,72643,68364,70071,65296,76717,79159,63007,57977,67747,60440,54076,122162,168329,171497,217600,191962,218803,233096,209351,182223,178107,154294,148237,60133,66605,73139,78282,73088,83722,85212,64790,54355,64507,60333,55101,141,2025-11-17T10:51:09.118-06:00
57962,72655,68366,70089,65313,76724,79180,63000,57950,67724,60433,54079,122131,168329,171477,217600,192002,218753,233123,209270,182132,178053,154286,148252,60147,66630,73144,78287,73088,83689,85197,64771,54338,64482,60309,55087,141,2025-11-17T10:51:09.118-06:00
57979,72702,68385,70098,65291,76693,79148,62963,57950,67718,60414,54084,122154,168341,171474,217564,191961,218752,233042,209207,182087,178045,154226,148235,60185,66649,73169,78273,73061,83711,85178,64766,54332,64491,60306,55090,142,2025-11-17T10:51:09.182-06:00
57992,72710,68389,70097,65301,76701,79159,62966,57951,67714,60428,54097,122172,168307,171490,217572,192005,218778,232982,209116,182093,177998,154254,148230,60199,66653,73170,78269,73078,83703,85187,64770,54330,64496,60308,55090,142,2025-11-17T10:51:09.182-06:00
57988,72705,68401,70101,65299,76696,79165,62967,57943,67700,60419,54110,122166,168337,171519,217547,191962,218768,232951,209099,182066,178007,154239,148266,60194,66669,73181,78273,73082,83715,85202,64765,54339,64481,60310,55092,143,2025-11-17T10:51:09.267-06:00
58007,72725,68403,70105,65317,76719,79151,62962,57952,67708,60423,54094,122158,168337,171496,217551,192015,218821,232977,209077,182063,177962,154222,148252,60207,66675,73179,78287,73093,83720,85190,64768,54350,64477,60304,55094,143,2025-11-17T10:51:09.267-06:00
58005,72727,68423,70114,65314,76727,79157,62953,57949,67707,60423,54101,122144,168301,171498,217519,191995,218700,232957,209041,181973,177902,154186,148250,60207,66671,73210,78284,73101,83706,85176,64772,54340,64485,60301,55110,144,2025-11-17T10:51:09.298-06:00
58022,72743,68420,70123,65334,76739,79156,62955,57958,67730,60430,54118,122133,168305,171502,217506,192037,218761,232951,208918,181965,177964,154223,148259,60223,66710,73207,78293,73106,83717,85201,64761,54341,64490,60321,55122,144,2025-11-17T10:51:09.298-06:00
58019,72760,68448,70117,65330,76730,79174,62953,57968,67719,60430,54123,122142,168349,171514,217540,192015,218812,232924,208914,181949,177950,154230,148240,60220,66706,73215,78285,73115,83710,85210,64752,54349,64493,60327,55137,145,2025-11-17T10:51:09.391-06:00
58038,72778,68463,70134,65343,76734,79210,62981,57965,67729,60449,54151,122170,168347,171546,217516,192043,218767,232925,208959,181877,177960,154176,148275,60248,66723,73231,78289,73111,83732,85221,64771,54342,64503,60335,55163,145,2025-11-17T10:51:09.391-06:00
58044,72788,68472,70161,65335,76727,79197,62978,57967,67727,60455,54141,122156,168311,171519,217461,192060,218784,232927,208876,181882,177915,154162,148264,60255,66727,73232,78305,73118,83721,85219,64761,54347,64502,60324,55162,146,2025-11-17T10:51:09.448-06:00
58071,72805,68478,70154,65358,76755,79205,62981,57979,67734,60454,54147,122157,168358,171493,217469,192079,218775,232894,208875,181884,177929,154206,148237,60273,66742,73249,78311,73123,83724,85232,64787,54359,64513,60347,55162,146,2025-11-17T10:51:09.448-06:00
58079,72806,68485,70159,65356,76768,79204,63010,57983,67732,60460,54151,122173,168336,171547,217516,192100,218804,232955,208813,181891,177890,154180,148253,60281,66765,73262,78331,73125,83744,85255,64793,54369,64502,60351,55156,147,2025-11-17T10:51:09.518-06:00
58084,72838,68508,70185,65353,76765,79209,63016,57979,67733,60457,54154,122172,168317,171516,217521,192126,218763,232895,208835,181880,177917,154175,148239,60299,66770,73265,78334,73138,83753,85276,64804,54389,64506,60347,55154,147,2025-11-17T10:51:09.518-06:00
58102,72841,68484,70189,65382,76746,79231,63039,58002,67744,60441,54148,122193,168347,171515,217506,192134,218821,232917,208832,181837,177911,154169,148234,60321,66781,73268,78317,73143,83741,85267,64817,54402,64532,60344,55156,148,2025-11-17T10:51:09.567-06:00
58118,72859,68517,70186,65397,76775,79247,63040,58027,67739,60442,54147,122195,168310,171545,217570,192179,218864,232932,208877,181862,177861,154151,148232,60324,66801,73292,78340,73163,83767,85279,64834,54414,64532,60341,55171,148,2025-11-17T10:51:09.567-06:00
58114,72877,68528,70203,65397,76793,79249,63054,58032,67737,60453,54153,122195,168355,171535,217538,192191,218881,232931,208849,181909,177923,154156,148247,60353,66807,73291,78350,73168,83780,85283,64853,54428,64543,60352,55169,149,2025-11-17T10:51:09.630-06:00
58138,72890,68533,70208,65395,76780,79259,63070,58045,67751,60465,54136,122225,168352,171554,217548,192241,218925,232936,208814,181855,177870,154132,148243,60379,66848,73322,78372,73194,83798,85309,64863,54439,64536,60339,55171,149,2025-11-17T10:51:09.630-06:00
58138,72891,68544,70210,65404,76796,79244,63066,58049,67741,60445,54150,122222,168361,171558,217577,192194,218897,232896,208826,181848,177869,154153,148231,60379,66840,73325,78375,73168,83801,85317,64873,54439,64543,60350,55172,150,2025-11-17T10:51:09.743-06:00
58142,72868,68527,70203,65397,76802,79281,63097,58055,67772,60515,54199,122219,168310,171549,217547,192220,218922,232952,208809,181839,177908,154239,148283,60370,66837,73311,78375,73180,83811,85333,64879,54450,64583,60412,55230,150,2025-11-17T10:51:09.743-06:00
58050,72745,68448,70163,65378,76786,79287,63120,58066,67858,60614,54254,122124,168286,171519,217632,192222,218950,232948,208836,181718,178072,154412,148374,60264,66712,73231,78365,73151,83768,85323,64851,54415,64678,60543,55313,151,2025-11-17T10:51:09.786-06:00
57973,72617,68390,70148,65353,76786,79275,63122,58076,67912,60667,54293,122072,168200,171453,217637,192222,218966,232900,208762,181686,178114,154441,148399,60140,66548,73156,78302,73112,83706,85234,64799,54403,64679,60592,55339,151,2025-11-17T10:51:09.786-06:00
57983,72619,68379,70122,65332,76758,79230,63093,58064,67874,60609,54251,122082,168204,171441,217605,192168,218969,232872,208676,181644,178018,154370,148335,60155,66568,73138,78277,73093,83698,85176,64763,54397,64650,60545,55297,152,2025-11-17T10:51:09.895-06:00
58027,72728,68432,70151,65351,76745,79222,63084,58066,67846,60577,54225,122150,168269,171452,217538,192208,218994,232822,208573,181575,178000,154316,148302,60256,66678,73189,78297,73087,83695,85197,64774,54407,64636,60490,55271,152,2025-11-17T10:51:09.895-06:00
58067,72754,68455,70151,65363,76760,79224,63081,58062,67822,60581,54227,122179,168287,171461,217572,192240,218977,232780,208572,181578,177978,154290,148313,60295,66718,73206,78303,73090,83721,85217,64773,54411,64626,60480,55262,153,2025-11-17T10:51:09.930-06:00
58057,72750,68449,70164,65352,76764,79237,63086,58055,67817,60583,54225,122120,168303,171495,217570,192245,218963,232848,208557,181519,177917,154293,148298,60258,66716,73207,78309,73109,83723,85222,64776,54398,64621,60479,55272,153,2025-11-17T10:51:09.930-06:00
58033,72737,68446,70158,65342,76752,79221,63069,58033,67821,60561,54210,122090,168271,171485,217565,192210,218938,232770,208495,181431,177880,154237,148289,60246,66681,73207,78313,73095,83690,85208,64755,54382,64603,60471,55251,154,2025-11-17T10:51:09.991-06:00
58046,72748,68437,70153,65330,76744,79241,63045,58007,67810,60546,54203,122109,168312,171439,217563,192200,218880,232736,208377,181320,177859,154228,148234,60258,66711,73216,78310,73084,83677,85207,64734,54363,64566,60460,55225,154,2025-11-17T10:51:09.991-06:00
58058,72771,68450,70154,65316,76727,79207,63012,57998,67809,60552,54170,122093,168249,171445,217507,192188,218853,232689,208295,181280,177822,154131,148144,60258,66708,73221,78283,73072,83670,85188,64706,54343,64567,60426,55225,155,2025-11-17T10:51:10.050-06:00
58034,72738,68457,70138,65329,76725,79201,62989,57999,67814,60580,54215,122072,168242,171443,217501,192165,218833,232688,208233,181211,177833,154232,148243,60246,66693,73219,78289,73046,83682,85160,64695,54330,64588,60461,55243,155,2025-11-17T10:51:10.050-06:00
58035,72758,68457,70149,65344,76739,79209,62999,57988,67810,60558,54206,122086,168234,171420,217488,192170,218900,232585,208260,181225,177775,154236,148234,60252,66709,73217,78269,73061,83674,85169,64687,54333,64568,60454,55242,156,2025-11-17T10:51:10.112-06:00
58046,72774,68443,70153,65338,76729,79204,62999,58010,67806,60549,54196,122086,168256,171416,217444,192097,218851,232568,208170,181205,177747,154171,148188,60263,66724,73226,78281,73052,83659,85160,64677,54333,64558,60439,55211,156,2025-11-17T10:51:10.112-06:00
58071,72791,68471,70137,65319,76721,79193,62990,57999,67800,60512,54167,122092,168210,171445,217438,192130,218811,232574,208078,181117,177672,154125,148115,60286,66739,73235,78273,73053,83645,85159,64682,54333,64553,60410,55180,157,2025-11-17T10:51:10.195-06:00
58075,72797,68476,70169,65311,76728,79193,62977,57992,67778,60493,54148,122104,168252,171414,217399,192116,218816,232561,208082,181153,177662,154080,148117,60288,66760,73245,78274,73051,83649,85157,64681,54336,64524,60382,55152,157,2025-11-17T10:51:10.195-06:00
58069,72804,68461,70138,65313,76713,79171,62943,57996,67747,60473,54131,122068,168238,171381,217351,192153,218821,232492,208017,181098,177592,154029,148086,60284,66767,73239,78279,73030,83644,85165,64670,54323,64505,60359,55141,158,2025-11-17T10:51:10.231-06:00
58080,72797,68479,70155,65324,76706,79186,62943,57977,67740,60472,54125,122066,168213,171401,217395,192075,218796,232490,207986,181087,177539,154000,148094,60291,66764,73258,78272,73043,83648,85134,64670,54337,64505,60332,55129,158,2025-11-17T10:51:10.231-06:00
58080,72801,68471,70140,65324,76722,79157,62926,57976,67743,60451,54105,122040,168196,171423,217360,192115,218780,232426,207979,181056,177511,153934,148013,60293,66767,73255,78282,73035,83640,85136,64652,54347,64477,60336,55121,159,2025-11-17T10:51:10.318-06:00
58068,72788,68476,70151,65326,76718,79168,62941,57986,67731,60446,54099,122051,168198,171426,217351,192097,218727,232422,207949,181070,177516,153946,148020,60286,66777,73259,78288,73034,83636,85162,64662,54344,64497,60312,55100,159,2025-11-17T10:51:10.318-06:00
58066,72805,68488,70153,65328,76721,79170,62954,57997,67726,60396,54078,122043,168191,171408,217342,192084,218803,232371,207930,181072,177457,153908,147973,60289,66774,73264,78280,73031,83660,85160,64684,54343,64479,60269,55070,160,2025-11-17T10:51:10.381-06:00
58073,72808,68491,70173,65343,76702,79182,62966,58005,67721,60438,54081,122037,168192,171422,217425,192127,218790,232378,207925,181060,177480,153905,148009,60283,66766,73275,78297,73051,83667,85167,64673,54360,64480,60298,55085,160,2025-11-17T10:51:10.381-06:00
58072,72808,68503,70153,65328,76733,79192,62982,58015,67710,60411,54067,122071,168224,171407,217350,192148,218813,232413,207949,181060,177426,153909,147957,60312,66788,73274,78280,73054,83654,85172,64697,54370,64491,60295,55076,161,2025-11-17T10:51:10.441-06:00
58095,72829,68501,70174,65339,76737,79192,62991,58026,67734,60416,54066,122064,168225,171406,217336,192187,218871,232454,207976,181148,177444,153886,147939,60326,66822,73302,78296,73052,83665,85184,64719,54410,64494,60299,55071,161,2025-11-17T10:51:10.441-06:00
58100,72845,68522,70195,65344,76730,79201,63017,58034,67707,60409,54057,122077,168226,171461,217399,192161,218864,232460,207923,181128,177449,153849,147939,60330,66827,73305,78300,73058,83679,85218,64736,54424,64504,60283,55062,162,2025-11-17T10:51:10.497-06:00
58119,72850,68540,70182,65365,76735,79197,63020,58058,67711,60401,54036,122095,168215,171441,217427,192234,218922,232463,207975,181167,177441,153819,147962,60360,66839,73322,78305,73085,83706,85237,64771,54429,64498,60278,55056,162,2025-11-17T10:51:10.497-06:00
58122,72852,68542,70203,65373,76758,79209,63052,58071,67711,60399,54048,122103,168229,171432,217432,192246,218956,232425,208010,181224,177428,153815,147860,60365,66834,73319,78324,73101,83706,85262,64776,54453,64515,60259,55037,163,2025-11-17T10:51:10.566-06:00
58128,72869,68552,70208,65394,76781,79219,63070,58089,67713,60399,54035,122131,168250,171479,217454,192290,218985,232503,208037,181202,177464,153833,147920,60378,66849,73351,78340,73103,83747,85245,64816,54475,64517,60276,55045,163,2025-11-17T10:51:10.566-06:00
58147,72886,68570,70224,65406,76782,79253,63092,58098,67716,60394,54027,122135,168285,171505,217488,192291,219038,232483,208069,181223,177424,153791,147917,60403,66869,73376,78363,73128,83773,85274,64834,54492,64536,60269,55028,164,2025-11-17T10:51:10.678-06:00
58151,72893,68586,70231,65421,76786,79250,63103,58120,67705,60370,54010,122147,168293,171506,217519,192381,219081,232539,208117,181244,177464,153767,147892,60414,66871,73390,78393,73172,83789,85293,64843,54507,64532,60246,55021,164,2025-11-17T10:51:10.678-06:00
58153,72901,68597,70258,65418,76814,79281,63142,58128,67702,60377,54022,122148,168290,171524,217509,192395,219117,232577,208157,181275,177377,153761,147869,60413,66877,73409,78391,73159,83809,85319,64877,54533,64531,60245,55020,165,2025-11-17T10:51:10.737-06:00
58174,72925,68622,70263,65447,76823,79287,63163,58140,67721,60392,54012,122204,168341,171571,217507,192464,219121,232590,208157,181322,177475,153756,147873,60445,66919,73426,78414,73165,83823,85352,64908,54546,64558,60270,55030,165,2025-11-17T10:51:10.737-06:00
58180,72933,68609,70268,65452,76813,79288,63171,58149,67730,60374,54022,122212,168323,171571,217537,192446,219180,232565,208222,181330,177444,153769,147879,60472,66915,73430,78411,73184,83836,85355,64913,54568,64562,60254,55007,166,2025-11-17T10:51:10.767-06:00
58175,72916,68600,70253,65456,76814,79321,63199,58177,67764,60433,54057,122171,168331,171571,217589,192408,219204,232614,208218,181320,177505,153840,147924,60442,66896,73434,78439,73182,83843,85386,64929,54571,64601,60309,55059,166,2025-11-17T10:51:10.767-06:00
58102,72804,68560,70243,65417,76831,79326,63207,58196,67838,60521,54109,122145,168276,171537,217587,192456,219220,232661,208202,181267,177636,154013,148006,60381,66801,73379,78420,73157,83808,85354,64923,54545,64671,60430,55139,167,2025-11-17T10:51:10.888-06:00
58024,72683,68481,70227,65393,76814,79310,63227,58201,67891,60566,54129,122109,168224,171492,217640,192431,219265,232573,208191,181218,177670,154065,148042,60265,66681,73280,78365,73104,83766,85285,64873,54537,64725,60488,55166,167,2025-11-17T10:51:10.888-06:00
58042,72714,68488,70210,65388,76800,79281,63217,58202,67874,60543,54118,122136,168261,171437,217536,192440,219263,232501,208082,181179,177673,154020,148006,60290,66702,73283,78342,73084,83744,85226,64830,54535,64705,60449,55147,168,2025-11-17T10:51:10.918-06:00
58096,72790,68537,70247,65409,76840,79269,63187,58191,67845,60494,54090,122187,168221,171470,217539,192442,219280,232448,208071,181207,177575,153919,147948,60378,66797,73354,78351,73098,83785,85241,64837,54547,64686,60401,55116,168,2025-11-17T10:51:10.918-06:00
58133,72841,68571,70255,65424,76814,79268,63194,58181,67831,60485,54101,122210,168298,171492,217528,192454,219228,232468,208022,181145,177523,153894,147882,60420,66847,73391,78379,73101,83784,85265,64858,54548,64668,60381,55106,169,2025-11-17T10:51:10.986-06:00
58141,72857,68572,70245,65418,76806,79291,63205,58175,67845,60501,54113,122190,168279,171475,217554,192482,219224,232443,208009,181065,177529,153904,147946,60410,66834,73379,78399,73108,83796,85275,64855,54539,64646,60405,55136,169,2025-11-17T10:51:10.986-06:00
58131,72839,68565,70253,65412,76808,79267,63156,58151,67817,60490,54105,122186,168321,171502,217521,192429,219140,232457,207887,180993,177478,153894,147961,60420,66843,73376,78383,73085,83759,85274,64828,54503,64629,60405,55147,170,2025-11-17T10:51:11.038-06:00
58132,72865,68578,70237,65396,76819,79271,63125,58150,67828,60503,54113,122188,168273,171472,217543,192407,219150,232337,207753,180892,177440,153859,147927,60413,66846,73377,78369,73088,83737,85239,64783,54476,64616,60391,55136,170,2025-11-17T10:51:11.038-06:00
58133,72846,68576,70251,65386,76785,79252,63103,58135,67829,60527,54123,122192,168267,171468,217521,192372,219100,232348,207657,180847,177493,153877,147968,60419,66832,73370,78379,73079,83729,85227,64775,54468,64637,60414,55149,171,2025-11-17T10:51:11.122-06:00
58135,72857,68559,70252,65390,76801,79249,63093,58149,67849,60524,54135,122138,168233,171468,217496,192421,219146,232279,207669,180850,177449,153893,147944,60399,66813,73370,78358,73083,83735,85224,64775,54480,64634,60430,55155,171,2025-11-17T10:51:11.122-06:00
58141,72848,68567,70240,65393,76793,79250,63101,58138,67831,60551,54150,122124,168230,171439,217491,192403,219058,232258,207623,180783,177442,153897,147943,60399,66821,73378,78365,73091,83730,85213,64755,54469,64637,60444,55183,172,2025-11-17T10:51:11.191-06:00
58159,72884,68587,70247,65392,76775,79244,63091,58126,67850,60534,54144,122168,168265,171435,217438,192334,219106,232219,207545,180767,177389,153881,147928,60426,66845,73385,78379,73070,83729,85186,64742,54474,64627,60417,55164,172,2025-11-17T10:51:11.191-06:00
58180,72899,68602,70265,65401,76789,79235,63076,58127,67836,60526,54138,122184,168269,171414,217471,192404,219076,232233,207484,180779,177397,153857,147912,60431,66859,73408,78355,73089,83707,85209,64752,54470,64622,60405,55163,173,2025-11-17T10:51:11.247-06:00
58180,72886,68598,70264,65389,76768,79235,63073,58125,67818,60520,54133,122170,168238,171432,217489,192406,219067,232180,207473,180756,177339,153815,147937,60436,66869,73417,78374,73087,83726,85208,64745,54476,64612,60403,55171,173,2025-11-17T10:51:11.247-06:00
58191,72913,68617,70266,65399,76778,79239,63101,58133,67813,60479,54134,122176,168205,171471,217436,192426,219057,232166,207434,180754,177320,153800,147910,60443,66871,73426,78382,73088,83746,85241,64759,54481,64615,60397,55122,174,2025-11-17T10:51:11.313-06:00
58203,72913,68635,70266,65412,76785,79236,63096,58143,67826,60502,54134,122177,168206,171459,217467,192421,219098,232136,207371,180732,177312,153797,147870,60455,66886,73425,78367,73089,83720,85239,64749,54480,64616,60408,55149,174,2025-11-17T10:51:11.313-06:00
58207,72933,68648,70297,65406,76783,79228,63101,58136,67822,60511,54131,122184,168249,171482,217470,192422,219030,232183,207440,180742,177281,153794,147884,60455,66879,73446,78394,73109,83742,85235,64775,54493,64616,60399,55167,175,2025-11-17T10:51:11.368-06:00
58204,72930,68659,70281,65422,76801,79261,63111,58139,67815,60500,54127,122188,168227,171475,217514,192477,219052,232189,207413,180739,177295,153733,147851,60467,66890,73461,78407,73111,83744,85269,64794,54490,64612,60390,55136,175,2025-11-17T10:51:11.368-06:00
58222,72947,68652,70284,65422,76795,79262,63109,58158,67827,60515,54136,122173,168215,171424,217471,192419,219064,232160,207397,180710,177277,153760,147888,60473,66888,73463,78410,73108,83746,85266,64785,54519,64619,60406,55173,176,2025-11-17T10:51:11.439-06:00
58223,72953,68672,70311,65437,76798,79267,63128,58153,67824,60508,54139,122169,168218,171473,217424,192432,219075,232130,207362,180740,177250,153764,147840,60492,66928,73489,78403,73112,83762,85263,64793,54517,64628,60412,55155,176,2025-11-17T10:51:11.439-06:00
58243,72982,68687,70319,65432,76807,79253,63122,58171,67837,60516,54144,122197,168222,171457,217442,192486,219071,232123,207341,180725,177260,153774,147903,60500,66917,73488,78414,73125,83770,85256,64804,54530,64649,60409,55168,177,2025-11-17T10:51:11.491-06:00
58249,72994,68715,70329,65439,76817,79275,63138,58190,67831,60508,54139,122203,168231,171496,217496,192482,219109,232101,207365,180800,177273,153744,147839,60523,66941,73510,78425,73123,83797,85267,64803,54537,64653,60409,55186,177,2025-11-17T10:51:11.491-06:00
58271,72999,68712,70323,65461,76840,79268,63150,58201,67844,60529,54158,122220,168229,171484,217445,192517,219094,232112,207405,180774,177285,153750,147883,60542,66945,73511,78437,73130,83795,85304,64830,54547,64656,60430,55190,178,2025-11-17T10:51:11.612-06:00
58280,73006,68721,70339,65486,76837,79289,63184,58213,67836,60528,54181,122199,168248,171524,217461,192518,219091,232160,207445,180783,177257,153729,147879,60537,66963,73536,78438,73144,83787,85299,64852,54579,64652,60438,55195,178,2025-11-17T10:51:11.612-06:00
58281,73028,68747,70347,65490,76848,79315,63195,58208,67833,60518,54124,122234,168259,171522,217464,192560,219104,232186,207508,180820,177269,153610,147868,60566,66960,73554,78459,73162,83813,85334,64878,54596,64664,60420,55193,179,2025-11-17T10:51:11.651-06:00
58302,73046,68749,70357,65496,76854,79308,63218,58230,67847,60522,54152,122263,168272,171524,217480,192599,219184,232223,207519,180821,177278,153723,147880,60572,66998,73577,78476,73169,83831,85329,64890,54614,64675,60427,55206,179,2025-11-17T10:51:11.651-06:00
58318,73058,68756,70366,65504,76861,79327,63235,58235,67845,60507,54152,122271,168265,171551,217502,192609,219203,232222,207606,180873,177265,153682,147831,60578,67021,73578,78479,73195,83838,85349,64907,54618,64697,60416,55198,180,2025-11-17T10:51:11.697-06:00
58314,73046,68766,70381,65511,76879,79333,63228,58243,67840,60538,54160,122274,168272,171548,217491,192663,219192,232211,207573,180826,177262,153689,147857,60591,67005,73586,78490,73220,83848,85370,64916,54637,64690,60429,55188,180,2025-11-17T10:51:11.697-06:00
58342,73069,68783,70386,65517,76892,79347,63249,58259,67841,60520,54174,122305,168304,171575,217536,192646,219204,232242,207635,180844,177233,153704,147836,60610,67036,73605,78505,73195,83865,85377,64931,54654,64686,60444,55210,181,2025-11-17T10:51:11.761-06:00
58344,73064,68773,70375,65525,76882,79347,63265,58265,67834,60518,54152,122313,168271,171559,217579,192673,219268,232229,207663,180874,177257,153658,147811,60611,67018,73613,78522,73217,83876,85397,64965,54657,64685,60429,55198,181,2025-11-17T10:51:11.761-06:00
58316,73057,68777,70391,65519,76907,79354,63291,58283,67888,60576,54207,122272,168226,171560,217604,192741,219246,232264,207725,180784,177294,153726,147904,60592,67003,73607,78532,73255,83878,85423,64953,54652,64724,60478,55262,182,2025-11-17T10:51:11.818-06:00
58261,72970,68710,70378,65495,76872,79375,63289,58281,67969,60680,54279,122229,168237,171514,217648,192713,219255,232325,207696,180779,177468,153921,147988,60507,66908,73568,78536,73209,83856,85389,64935,54637,64815,60622,55343,182,2025-11-17T10:51:11.818-06:00
58191,72850,68655,70334,65481,76879,79386,63288,58302,68016,60744,54307,122160,168164,171463,217587,192668,219230,232295,207700,180754,177503,153991,148029,60393,66763,73467,78480,73139,83798,85335,64884,54617,64845,60662,55378,183,2025-11-17T10:51:11.911-06:00
58173,72841,68628,70333,65460,76869,79332,63268,58273,68008,60708,54280,122185,168182,171429,217597,192648,219239,232251,207658,180691,177447,153967,147986,60388,66760,73445,78447,73144,83777,85262,64832,54608,64818,60640,55344,183,2025-11-17T10:51:11.911-06:00
58226,72910,68684,70361,65464,76840,79325,63233,58239,67942,60665,54270,122209,168252,171430,217589,192629,219194,232225,207603,180574,177337,153854,147953,60440,66859,73494,78472,73131,83786,85256,64820,54583,64765,60585,55326,184,2025-11-17T10:51:11.968-06:00
58243,72949,68702,70362,65455,76837,79295,63196,58238,67939,60641,54245,122231,168214,171430,217533,192595,219128,232134,207538,180512,177284,153831,147926,60502,66896,73512,78470,73137,83775,85274,64811,54581,64737,60560,55307,184,2025-11-17T10:51:11.968-06:00
58247,72978,68698,70346,65453,76828,79286,63168,58204,67929,60643,54264,122235,168195,171439,217505,192592,219040,232100,207391,180410,177270,153836,147904,60490,66886,73516,78463,73129,83741,85255,64791,54534,64736,60566,55333,185,2025-11-17T10:51:12.061-06:00
58264,72957,68694,70336,65454,76840,79274,63149,58202,67941,60661,54276,122222,168202,171404,217495,192558,219061,232089,207356,180410,177255,153803,147910,60487,66873,73508,78460,73115,83740,85236,64751,54534,64743,60578,55330,185,2025-11-17T10:51:12.061-06:00
58251,72973,68699,70354,65461,76823,79264,63131,58201,67935,60658,54277,122192,168160,171386,217477,192542,219045,232064,207300,180384,177251,153782,147911,60470,66865,73505,78458,73109,83742,85226,64750,54535,64735,60573,55337,186,2025-11-17T10:51:12.089-06:00
58257,72966,68716,70354,65441,76821,79264,63121,58207,67935,60659,54283,122170,168158,171399,217455,192502,219001,232017,207310,180318,177214,153797,147899,60476,66875,73507,78424,73107,83736,85210,64723,54523,64735,60580,55336,186,2025-11-17T10:51:12.089-06:00
58236,72944,68693,70341,65443,76803,79259,63120,58196,67946,60658,54278,122125,168101,171373,217444,192509,218991,232008,207278,180315,177231,153801,147907,60445,66842,73506,78464,73104,83729,85212,64702,54516,64737,60579,55339,187,2025-11-17T10:51:12.182-06:00
58231,72949,68701,70328,65450,76810,79250,63108,58183,67928,60658,54268,122139,168156,171352,217424,192517,218929,231959,207296,180283,177202,153757,147901,60437,66850,73493,78451,73101,83700,85193,64716,54510,64727,60576,55335,187,2025-11-17T10:51:12.182-06:00
58238,72943,68695,70345,65430,76787,79245,63085,58179,67924,60654,54240,122155,168119,171339,217428,192467,218933,231995,207225,180264,177161,153641,147805,60438,66851,73507,78450,73091,83716,85201,64698,54505,64714,60556,55324,188,2025-11-17T10:51:12.237-06:00
58241,72966,68724,70351,65447,76798,79235,63096,58177,67925,60659,54276,122156,168098,171340,217421,192467,218902,231922,207225,180275,177128,153707,147867,60459,66878,73508,78433,73087,83708,85174,64702,54516,64699,60554,55336,188,2025-11-17T10:51:12.237-06:00
58265,72994,68734,70340,65445,76807,79241,63086,58179,67913,60632,54256,122167,168121,171344,217344,192474,218926,231873,207262,180241,177049,153704,147838,60468,66893,73522,78431,73098,83716,85187,64691,54493,64693,60538,55320,189,2025-11-17T10:51:12.301-06:00
58258,72992,68737,70355,65445,76796,79223,63074,58172,67899,60622,54270,122159,168109,171371,217378,192471,218878,231904,207212,180250,177031,153644,147810,60479,66904,73528,78450,73097,83705,85176,64697,54511,64676,60530,55315,189,2025-11-17T10:51:12.301-06:00
58264,72991,68745,70345,65435,76778,79239,63087,58181,67896,60615,54255,122144,168108,171350,217381,192474,218839,231915,207233,180235,177028,153645,147816,60474,66903,73540,78452,73099,83687,85188,64691,54512,64674,60527,55310,190,2025-11-17T10:51:12.364-06:00
58259,73011,68744,70366,65446,76787,79236,63086,58169,67898,60632,54273,122156,168101,171371,217323,192492,218898,231895,207239,180219,177017,153653,147849,60473,66911,73535,78437,73113,83695,85196,64690,54507,64668,60539,55333,190,2025-11-17T10:51:12.364-06:00
58283,73015,68747,70364,65456,76792,79232,63064,58170,67904,60631,54274,122147,168066,171310,217310,192482,218829,231909,207209,180193,177038,153642,147784,60483,66935,73529,78438,73123,83694,85183,64683,54504,64689,60540,55337,191,2025-11-17T10:51:12.419-06:00
58282,73029,68767,70368,65463,76802,79268,63088,58162,67919,60632,54293,122148,168119,171356,217366,192505,218840,231926,207264,180191,176980,153647,147817,60488,66920,73565,78452,73140,83714,85208,64682,54503,64671,60544,55343,191,2025-11-17T10:51:12.419-06:00
58279,73018,68759,70355,65455,76779,79248,63069,58176,67905,60632,54267,122133,168063,171337,217339,192474,218808,231874,207249,180183,176992,153642,147786,60489,66933,73549,78456,73108,83707,85196,64671,54504,64678,60551,55340,192,2025-11-17T10:51:12.532-06:00
58276,73014,68776,70382,65445,76811,79243,63086,58191,67899,60634,54265,122152,168076,171339,217333,192493,218828,231829,207248,180179,176976,153598,147766,60483,66938,73545,78469,73128,83714,85200,64675,54517,64679,60535,55327,192,2025-11-17T10:51:12.532-06:00
58294,73040,68765,70369,65471,76790,79234,63062,58172,67918,60607,54258,122169,168099,171332,217347,192500,218849,231838,207253,180195,176939,153577,147693,60491,66950,73556,78465,73123,83704,85184,64678,54523,64678,60485,55314,193,2025-11-17T10:51:12.568-06:00
58298,73042,68791,70383,65476,76809,79245,63070,58171,67896,60602,54263,122174,168093,171309,217343,192476,218856,231871,207289,180200,176961,153544,147752,60517,66945,73574,78485,73131,83706,85218,64697,54518,64683,60524,55314,193,2025-11-17T10:51:12.568-06:00
58315,73050,68784,70398,65481,76810,79246,63075,58198,67898,60614,54251,122192,168076,171325,217318,192489,218864,231885,207283,180276,176958,153555,147745,60521,66954,73577,78486,73140,83728,85216,64693,54546,64683,60516,55305,194,2025-11-17T10:51:12.629-06:00
58332,73064,68799,70393,65484,76825,79248,63086,58211,67911,60605,54258,122205,168079,171345,217300,192482,218832,231869,207322,180308,176945,153530,147729,60538,66977,73592,78485,73151,83745,85206,64714,54578,64704,60516,55306,194,2025-11-17T10:51:12.629-06:00
58340,73072,68824,70409,65487,76811,79255,63097,58217,67890,60594,54221,122194,168084,171350,217285,192447,218865,231839,207367,180342,176922,153506,147703,60555,66983,73607,78486,73133,83747,85208,64721,54582,64694,60485,55281,195,2025-11-17T10:51:12.688-06:00
58329,73058,68797,70397,65496,76822,79262,63110,58223,67876,60565,54206,122184,168059,171371,217298,192477,218879,231914,207466,180383,176891,153451,147652,60546,66983,73622,78488,73147,83747,85239,64727,54578,64682,60479,55250,195,2025-11-17T10:51:12.688-06:00
58313,73060,68798,70396,65489,76823,79242,63113,58240,67875,60561,54187,122193,168059,171345,217262,192482,218906,231838,207437,180406,176912,153453,147621,60537,66980,73609,78502,73146,83761,85234,64743,54604,64696,60465,55242,196,2025-11-17T10:51:12.749-06:00
58324,73051,68822,70416,65505,76817,79256,63117,58251,67886,60550,54192,122208,168087,171382,217323,192519,218874,231899,207505,180501,176914,153450,147619,60543,66978,73631,78503,73150,83760,85231,64750,54605,64692,60465,55231,196,2025-11-17T10:51:12.749-06:00
58327,73057,68814,70409,65508,76843,79262,63138,58252,67880,60547,54196,122222,168080,171357,217320,192462,218917,231855,207526,180499,176897,153458,147629,60548,66983,73629,78518,73158,83790,85240,64750,54625,64706,60467,55244,197,2025-11-17T10:51:12.867-06:00
58349,73092,68835,70433,65529,76851,79284,63162,58292,67888,60554,54197,122256,168095,171357,217330,192511,218953,231886,207634,180619,176893,153401,147640,60573,67012,73656,78528,73183,83806,85255,64777,54654,64720,60462,55239,197,2025-11-17T10:51:12.867-06:00
58362,73089,68834,70449,65538,76886,79290,63167,58286,67896,60535,54183,122257,168132,171403,217303,192557,218974,231979,207734,180664,176857,153391,147590,60593,67020,73679,78536,73201,83823,85287,64807,54668,64698,60453,55219,198,2025-11-17T10:51:12.899-06:00
58339,73061,68837,70443,65539,76865,79287,63175,58294,67926,60600,54219,122250,168119,171372,217375,192565,218966,231984,207770,180640,176973,153479,147629,60559,66991,73668,78555,73201,83827,85302,64823,54667,64758,60517,55265,198,2025-11-17T10:51:12.899-06:00
58246,72951,68744,70420,65507,76861,79314,63196,58322,68008,60689,54259,122163,168024,171324,217439,192548,219005,231971,207831,180682,177107,153609,147741,60461,66855,73586,78541,73170,83794,85280,64799,54646,64812,60603,55318,199,2025-11-17T10:51:12.987-06:00
58163,72818,68673,70381,65491,76866,79282,63215,58320,68022,60721,54275,122113,167980,171257,217384,192494,219073,231996,207825,180683,177161,153651,147744,60317,66714,73476,78483,73125,83736,85186,64744,54629,64856,60617,55343,199,2025-11-17T10:51:12.987-06:00
58179,72829,68669,70376,65483,76860,79267,63200,58331,68014,60664,54243,122126,167995,171192,217317,192441,219017,231969,207867,180733,177111,153575,147697,60354,66725,73473,78445,73084,83736,85158,64727,54646,64830,60583,55290,200,2025-11-17T10:51:13.017-06:00
58223,72910,68736,70406,65499,76865,79246,63189,58350,67977,60634,54216,122189,168027,171285,217358,192459,219035,231989,207874,180818,177097,153509,147635,60434,66820,73520,78469,73112,83744,85178,64726,54673,64793,60541,55268,200,2025-11-17T10:51:13.017-06:00
58246,72923,68736,70403,65508,76859,79254,63194,58337,67974,60612,54195,122203,168038,171279,217287,192499,219082,231949,207960,180843,177005,153500,147623,60468,66851,73543,78482,73115,83785,85193,64759,54675,64795,60537,55243,201,2025-11-17T10:51:13.083-06:00
58248,72948,68717,70395,65506,76881,79264,63217,58356,67984,60626,54189,122253,168097,171275,217308,192481,219031,232012,208000,180951,177060,153526,147594,60456,66863,73545,78482,73145,83765,85207,64772,54688,64813,60536,55250,201,2025-11-17T10:51:13.083-06:00
58249,72962,68722,70400,65517,76868,79260,63224,58387,68000,60621,54200,122252,168073,171259,217285,192443,219081,231961,208093,180947,177057,153456,147604,60478,66858,73545,78481,73109,83772,85202,64770,54688,64832,60543,55245,202,2025-11-17T10:51:13.202-06:00
58265,72964,68730,70423,65508,76871,79266,63223,58366,67990,60629,54195,122285,168064,171230,217304,192421,219109,232006,208146,180992,177073,153469,147613,60502,66886,73561,78464,73116,83776,85183,64777,54695,64827,60545,55261,202,2025-11-17T10:51:13.202-06:00
58264,72964,68755,70408,65512,76861,79253,63211,58348,67991,60642,54215,122274,168096,171270,217217,192456,219051,231969,208117,180952,177042,153485,147598,60502,66884,73563,78465,73108,83762,85200,64766,54670,64815,60556,55278,203,2025-11-17T10:51:13.228-06:00
58264,72960,68735,70406,65508,76861,79243,63200,58344,67986,60641,54221,122278,168083,171239,217260,192451,219058,231951,208087,180922,177047,153490,147627,60487,66875,73549,78474,73102,83745,85181,64751,54665,64815,60561,55263,203,2025-11-17T10:51:13.228-06:00
58251,72948,68737,70394,65503,76853,79225,63180,58324,67985,60635,54203,122266,168046,171210,217201,192390,219016,231918,208049,180903,177034,153444,147579,60492,66863,73528,78463,73076,83733,85164,64719,54653,64810,60527,55239,204,2025-11-17T10:51:13.313-06:00
58253,72956,68730,70385,65494,76848,79235,63156,58332,67979,60613,54187,122271,168017,171223,217169,192404,219033,231865,208034,180879,176993,153422,147545,60487,66872,73537,78434,73089,83747,85136,64708,54635,64796,60512,55224,204,2025-11-17T10:51:13.313-06:00
58273,72969,68742,70385,65498,76869,79231,63141,58307,67943,60597,54177,122297,168056,171192,217152,192368,218983,231925,208073,180874,176928,153390,147545,60521,66882,73528,78443,73081,83745,85138,64694,54623,64778,60498,55212,205,2025-11-17T10:51:13.380-06:00
58251,72963,68742,70393,65508,76866,79195,63126,58317,67942,60574,54164,122257,168038,171230,217075,192376,218976,231827,208040,180864,176905,153339,147522,60515,66877,73534,78422,73081,83748,85130,64677,54634,64765,60472,55192,205,2025-11-17T10:51:13.380-06:00
58268,72990,68755,70407,65513,76854,79219,63131,58303,67929,60577,54159,122297,168033,171217,217069,192355,218968,231931,208012,180907,176903,153288,147505,60513,66887,73564,78453,73081,83745,85156,64682,54634,64765,60463,55202,206,2025-11-17T10:51:13.462-06:00
58264,72997,68770,70420,65513,76868,79217,63135,58318,67917,60571,54168,122299,168078,171211,217158,192419,218992,231896,208076,180949,176887,153311,147513,60525,66893,73563,78465,73110,83741,85173,64692,54645,64760,60470,55201,206,2025-11-17T10:51:13.462-06:00
58270,73004,68774,70426,65527,76853,79229,63147,58323,67916,60580,54154,122283,168073,171212,217071,192421,218990,231903,208177,180962,176878,153228,147458,60520,66872,73578,78487,73125,83763,85183,64728,54654,64753,60464,55196,207,2025-11-17T10:51:13.501-06:00
58269,72988,68781,70442,65522,76878,79246,63156,58317,67931,60582,54177,122273,168053,171215,217101,192435,219002,231957,208212,180984,176883,153291,147502,60524,66860,73579,78483,73140,83786,85187,64728,54655,64772,60483,55234,207,2025-11-17T10:51:13.501-06:00
58254,72985,68788,70426,65542,76858,79273,63165,58321,67940,60596,54212,122253,168023,171237,217201,192517,219013,232016,208269,181023,176888,153295,147526,60516,66877,73573,78505,73138,83786,85223,64741,54648,64768,60511,55244,208,2025-11-17T10:51:13.563-06:00
58262,72999,68775,70438,65544,76880,79277,63177,58327,67954,60608,54212,122259,168081,171215,217129,192477,219006,232023,208341,181042,176928,153325,147546,60519,66882,73586,78490,73176,83797,85230,64739,54661,64773,60528,55288,208,2025-11-17T10:51:13.563-06:00
58276,73015,68789,70445,65556,76871,79277,63187,58334,67952,60629,54235,122298,168041,171246,217162,192524,219022,232048,208337,181073,176940,153336,147558,60537,66890,73610,78514,73184,83813,85236,64751,54672,64803,60537,55307,209,2025-11-17T10:51:13.616-06:00
58289,73027,68804,70445,65573,76894,79297,63200,58342,67968,60633,54249,122319,168085,171207,217159,192534,219040,232072,208396,181182,176960,153328,147537,60552,66903,73604,78529,73207,83823,85273,64762,54685,64810,60553,55316,209,2025-11-17T10:51:13.616-06:00
58303,73042,68797,70461,65576,76885,79301,63196,58351,67967,60636,54263,122363,168082,171177,217180,192588,219060,232121,208460,181185,176937,153351,147573,60585,66916,73614,78515,73211,83843,85255,64777,54691,64814,60568,55330,210,2025-11-17T10:51:13.683-06:00
58317,73058,68816,70456,65596,76913,79313,63229,58355,67968,60635,54269,122363,168056,171220,217207,192604,219071,232124,208522,181253,176950,153357,147566,60579,66916,73620,78548,73213,83845,85278,64781,54710,64812,60569,55334,210,2025-11-17T10:51:13.683-06:00
58326,73049,68835,70473,65607,76907,79307,63235,58361,67970,60640,54270,122386,168072,171217,217201,192582,219093,232052,208578,181310,176980,153353,147560,60597,66941,73645,78546,73232,83859,85284,64802,54705,64824,60561,55331,211,2025-11-17T10:51:13.804-06:00
58342,73070,68832,70487,65608,76930,79346,63253,58375,67978,60648,54275,122376,168091,171248,217198,192636,219104,232155,208643,181294,176971,153329,147558,60607,66939,73641,78563,73238,83870,85317,64824,54720,64827,60572,55354,211,2025-11-17T10:51:13.804-06:00
58341,73070,68848,70508,65623,76939,79347,63272,58380,67972,60659,54278,122397,168111,171233,217227,192655,219125,232196,208736,181385,177005,153320,147572,60630,66969,73658,78562,73258,83871,85324,64841,54728,64833,60579,55347,212,2025-11-17T10:51:13.832-06:00
58358,73093,68844,70496,65638,76965,79370,63286,58388,67976,60670,54281,122423,168116,171259,217195,192679,219150,232231,208804,181373,176995,153309,147606,60663,66982,73656,78582,73268,83908,85347,64855,54741,64854,60581,55363,212,2025-11-17T10:51:13.832-06:00
58383,73110,68865,70515,65646,76973,79354,63292,58417,67996,60669,54311,122448,168105,171279,217226,192682,219160,232237,208821,181490,176977,153340,147578,60673,67002,73692,78591,73292,83909,85349,64870,54767,64857,60605,55384,213,2025-11-17T10:51:13.912-06:00
58395,73118,68869,70513,65651,76968,79373,63296,58418,68008,60698,54312,122460,168125,171278,217224,192665,219203,232251,208902,181508,177046,153367,147587,60689,67019,73697,78594,73285,83929,85370,64883,54768,64876,60620,55390,213,2025-11-17T10:51:13.912-06:00
58367,73094,68853,70531,65639,76965,79375,63310,58424,68041,60761,54367,122428,168078,171270,217203,192680,219154,232248,208939,181440,177111,153448,147666,60661,66988,73671,78619,73301,83921,85365,64889,54746,64910,60703,55470,214,2025-11-17T10:51:13.947-06:00
58291,72966,68754,70475,65611,76967,79380,63301,58413,68127,60860,54417,122340,168041,171153,217255,192641,219171,232272,208891,181376,177217,153616,147750,60552,66836,73559,78568,73262,83855,85321,64844,54690,64968,60792,55531,214,2025-11-17T10:51:13.947-06:00
58202,72856,68677,70430,65563,76926,79335,63269,58379,68132,60861,54418,122259,167928,171020,217188,192555,219072,232187,208705,181220,177192,153622,147709,60410,66714,73465,78491,73174,83802,85239,64741,54618,64960,60798,55518,215,2025-11-17T10:51:14.010-06:00
58229,72855,68674,70437,65553,76915,79292,63200,58341,68100,60831,54389,122269,167914,171007,217124,192509,219006,232086,208588,181164,177153,153542,147680,60452,66745,73461,78464,73152,83773,85176,64654,54602,64908,60753,55480,215,2025-11-17T10:51:14.010-06:00
58288,72940,68706,70433,65553,76898,79260,63151,58332,68096,60782,54362,122333,167961,171045,217061,192473,218965,231990,208476,181126,177042,153451,147589,60513,66816,73483,78470,73151,83762,85150,64654,54602,64867,60698,55447,216,2025-11-17T10:51:14.098-06:00
58264,72933,68711,70428,65550,76895,79252,63147,58300,68042,60776,54355,122312,167986,171042,217081,192465,218920,231973,208514,181095,176939,153413,147587,60512,66842,73477,78470,73167,83753,85181,64657,54595,64849,60678,55450,216,2025-11-17T10:51:14.098-06:00
58244,72929,68701,70432,65560,76879,79250,63137,58283,68036,60763,54373,122278,167963,171023,217082,192459,218905,231964,208460,181067,176931,153379,147579,60488,66811,73492,78470,73158,83763,85169,64644,54584,64817,60693,55440,217,2025-11-17T10:51:14.157-06:00
58260,72914,68693,70422,65555,76870,79266,63124,58291,68036,60771,54372,122254,167943,170987,217038,192411,218891,231962,208507,181080,176940,153392,147587,60474,66781,73476,78460,73166,83751,85170,64638,54577,64829,60694,55454,217,2025-11-17T10:51:14.157-06:00
58253,72934,68696,70431,65538,76881,79255,63118,58285,68031,60773,54378,122255,167930,171000,217027,192454,218829,231969,208503,181094,176907,153380,147586,60476,66785,73454,78460,73174,83750,85158,64623,54568,64816,60682,55465,218,2025-11-17T10:51:14.218-06:00
58247,72920,68698,70426,65534,76866,79259,63118,58283,68056,60777,54389,122229,167893,170958,217002,192410,218852,231987,208485,181097,176908,153374,147571,60463,66798,73456,78446,73154,83743,85158,64616,54573,64827,60680,55472,218,2025-11-17T10:51:14.218-06:00
58234,72899,68674,70403,65522,76869,79262,63108,58286,68054,60805,54402,122197,167921,170958,216963,192416,218804,231951,208452,181100,176868,153385,147596,60442,66784,73451,78438,73148,83740,85152,64619,54556,64821,60711,55494,219,2025-11-17T10:51:14.280-06:00
58226,72882,68672,70410,65545,76862,79254,63103,58281,68052,60798,54401,122195,167898,170985,216965,192422,218833,231927,208480,181067,176884,153409,147586,60424,66772,73427,78443,73154,83740,85134,64594,54563,64836,60710,55488,219,2025-11-17T10:51:14.280-06:00
58240,72899,68670,70390,65536,76863,79259,63097,58268,68049,60786,54393,122230,167906,170988,216982,192389,218759,231928,208473,181074,176848,153335,147559,60439,66780,73442,78432,73148,83736,85129,64599,54557,64814,60701,55482,220,2025-11-17T10:51:14.362-06:00
58251,72920,68698,70422,65538,76866,79264,63101,58288,68021,60766,54376,122230,167921,170950,216916,192395,218771,231905,208471,181103,176831,153279,147544,60461,66801,73445,78429,73164,83729,85141,64588,54546,64790,60679,55459,220,2025-11-17T10:51:14.362-06:00
58256,72939,68685,70418,65543,76857,79242,63092,58267,68006,60752,54369,122252,167957,171010,216897,192365,218740,231894,208489,181092,176785,153267,147512,60476,66820,73453,78441,73159,83745,85138,64593,54544,64786,60657,55459,221,2025-11-17T10:51:14.431-06:00
58280,72939,68698,70422,65554,76861,79243,63091,58251,68024,60768,54362,122241,167905,170977,216919,192390,218765,231906,208465,181095,176745,153260,147484,60481,66824,73463,78436,73167,83742,85131,64590,54552,64778,60664,55454,221,2025-11-17T10:51:14.431-06:00
58301,72974,68720,70433,65549,76881,79253,63095,58265,68013,60762,54382,122269,167920,170982,216878,192365,218784,231887,208520,181096,176761,153296,147514,60496,66840,73481,78444,73178,83732,85148,64593,54549,64788,60676,55470,222,2025-11-17T10:51:14.490-06:00
58291,72983,68711,70426,65560,76879,79252,63075,58266,68018,60766,54380,122257,167961,171008,216853,192392,218718,231882,208476,181142,176768,153245,147529,60515,66852,73489,78453,73159,83732,85180,64602,54548,64777,60680,55463,222,2025-11-17T10:51:14.490-06:00
58296,72977,68709,70427,65553,76876,79263,63090,58267,68019,60766,54386,122276,167927,170950,216863,192355,218647,231872,208482,181144,176732,153246,147477,60523,66856,73503,78443,73152,83727,85149,64591,54547,64776,60669,55480,223,2025-11-17T10:51:14.550-06:00
58300,72983,68706,70419,65546,76855,79250,63091,58251,67995,60767,54389,122269,167944,170959,216858,192333,218697,231856,208496,181136,176756,153232,147492,60507,66877,73467,78439,73183,83740,85147,64579,54543,64756,60672,55474,223,2025-11-17T10:51:14.550-06:00
58295,72973,68717,70412,65557,76870,79241,63081,58262,68011,60750,54364,122268,167909,170929,216802,192382,218721,231884,208499,181143,176688,153220,147483,60519,66850,73460,78433,73169,83750,85154,64588,54534,64762,60660,55459,224,2025-11-17T10:51:14.643-06:00
58324,72977,68710,70427,65561,76862,79233,63073,58255,68019,60763,54384,122268,167900,170945,216853,192318,218675,231851,208464,181162,176705,153214,147470,60533,66861,73469,78445,73165,83747,85153,64577,54538,64768,60661,55477,224,2025-11-17T10:51:14.643-06:00
58315,73003,68728,70441,65571,76868,79241,63060,58255,68004,60755,54381,122254,167926,170950,216856,192306,218678,231810,208437,181194,176723,153202,147469,60529,66880,73500,78441,73169,83750,85133,64579,54540,64764,60664,55460,225,2025-11-17T10:51:14.698-06:00
58316,72994,68723,70431,65584,76875,79273,63075,58271,67984,60739,54366,122288,167916,170967,216839,192350,218669,231779,208518,181208,176726,153168,147433,60542,66875,73504,78452,73195,83761,85148,64584,54551,64775,60656,55459,225,2025-11-17T10:51:14.698-06:00
58318,72983,68731,70440,65568,76888,79264,63073,58261,67973,60721,54322,122272,167946,170975,216805,192367,218689,231833,208524,181222,176645,153061,147384,60534,66894,73481,78434,73202,83755,85182,64593,54559,64757,60623,55427,226,2025-11-17T10:51:14.765-06:00
58329,73002,68750,70445,65582,76890,79277,63092,58277,67979,60708,54342,122286,167915,170985,216825,192365,218632,231826,208551,181244,176632,153107,147425,60555,66916,73515,78469,73203,83756,85157,64587,54563,64744,60615,55427,226,2025-11-17T10:51:14.765-06:00
58325,73026,68755,70458,65593,76904,79285,63094,58272,67981,60706,54345,122260,167916,170982,216828,192357,218704,231927,208628,181271,176603,153066,147391,60542,66906,73506,78474,73211,83798,85190,64615,54574,64744,60618,55409,227,2025-11-17T10:51:14.843-06:00
58338,73021,68762,70451,65593,76891,79281,63105,58295,67980,60701,54344,122299,167924,171004,216820,192357,218693,231889,208618,181382,176646,153083,147397,60563,66914,73526,78485,73220,83793,85213,64616,54595,64755,60595,55413,227,2025-11-17T10:51:14.843-06:00
58348,73025,68769,70479,65600,76893,79307,63139,58300,67966,60697,54338,122286,167985,170980,216780,192373,218687,231923,208688,181376,176632,153086,147373,60568,66928,73543,78489,73233,83804,85241,64645,54596,64750,60597,55412,228,2025-11-17T10:51:14.906-06:00
58360,73033,68770,70488,65614,76914,79310,63127,58302,67974,60704,54343,122315,167965,171021,216784,192382,218711,231909,208739,181435,176639,153062,147368,60586,66939,73556,78480,73244,83831,85243,64659,54613,64761,60612,55393,228,2025-11-17T10:51:14.906-06:00
58356,73043,68782,70486,65621,76932,79328,63154,58322,67981,60674,54314,122313,167925,170986,216790,192371,218743,231941,208794,181540,176633,153026,147330,60599,66956,73543,78495,73258,83839,85265,64670,54647,64757,60575,55389,229,2025-11-17T10:51:14.940-06:00
58361,73049,68765,70489,65617,76936,79324,63163,58322,67958,60674,54317,122335,167923,171006,216803,192397,218708,231958,208826,181571,176610,153021,147278,60602,66958,73561,78511,73267,83854,85270,64696,54629,64751,60585,55380,229,2025-11-17T10:51:14.940-06:00
58346,73022,68748,70489,65635,76940,79325,63167,58335,68020,60747,54354,122279,167896,171038,216814,192388,218750,231965,208861,181529,176695,153155,147364,60567,66905,73534,78515,73264,83836,85273,64669,54632,64797,60657,55446,230,2025-11-17T10:51:15.026-06:00
58248,72877,68657,70439,65575,76911,79345,63206,58356,68113,60840,54395,122207,167865,170890,216846,192372,218717,232002,208920,181557,176829,153273,147438,60442,66770,73447,78473,73218,83783,85235,64667,54607,64875,60754,55492,230,2025-11-17T10:51:15.026-06:00
58174,72755,68562,70405,65540,76912,79314,63188,58344,68113,60817,54369,122128,167793,170822,216798,192250,218673,231918,208874,181575,176863,153246,147394,60325,66642,73319,78418,73154,83750,85141,64609,54587,64865,60706,55466,231,2025-11-17T10:51:15.088-06:00
58189,72767,68565,70391,65547,76896,79274,63179,58348,68070,60789,54329,122162,167808,170840,216751,192254,218685,231934,208855,181567,176777,153155,147325,60349,66667,73328,78398,73148,83733,85137,64591,54594,64817,60671,55403,231,2025-11-17T10:51:15.088-06:00
58232,72834,68598,70399,65566,76913,79280,63159,58332,68025,60738,54298,122207,167860,170827,216750,192230,218728,231878,208850,181609,176707,153094,147298,60410,66740,73352,78386,73157,83761,85124,64589,54607,64797,60649,55370,232,2025-11-17T10:51:15.148-06:00
58263,72848,68622,70414,65569,76907,79289,63174,58355,68028,60730,54291,122213,167864,170855,216760,192210,218712,231888,208885,181684,176701,153103,147291,60446,66787,73388,78416,73176,83763,85154,64623,54625,64807,60623,55358,232,2025-11-17T10:51:15.148-06:00
58253,72867,68625,70417,65570,76914,79295,63202,58360,68042,60735,54302,122241,167858,170866,216704,192207,218714,231892,208975,181753,176700,153090,147286,60448,66792,73394,78403,73168,83770,85164,64646,54632,64805,60624,55354,233,2025-11-17T10:51:15.208-06:00
58244,72853,68611,70424,65571,76926,79298,63205,58363,68029,60744,54302,122190,167875,170873,216716,192229,218721,231887,208998,181745,176709,153077,147273,60435,66780,73395,78401,73158,83785,85179,64643,54630,64819,60615,55363,233,2025-11-17T10:51:15.208-06:00
58246,72863,68627,70426,65571,76935,79288,63199,58364,68033,60707,54278,122212,167884,170897,216700,192194,218721,231921,208934,181802,176691,153029,147263,60441,66801,73392,78422,73169,83786,85182,64646,54632,64792,60608,55349,234,2025-11-17T10:51:15.293-06:00
58260,72880,68627,70426,65578,76924,79299,63197,58345,68006,60711,54279,122222,167940,170879,216715,192206,218764,231932,208984,181764,176662,152989,147251,60446,66808,73419,78425,73169,83798,85179,64655,54626,64778,60609,55334,234,2025-11-17T10:51:15.293-06:00
58236,72843,68620,70420,65565,76920,79310,63184,58343,68008,60707,54287,122205,167888,170854,216657,192218,218630,231890,208962,181645,176649,153034,147226,60416,66774,73397,78421,73162,83769,85172,64636,54595,64780,60607,55335,235,2025-11-17T10:51:15.357-06:00
58235,72862,68602,70409,65564,76920,79284,63171,58327,68016,60730,54283,122213,167921,170882,216650,192146,218668,231897,208925,181638,176632,152979,147222,60426,66786,73394,78407,73164,83776,85152,64612,54591,64771,60602,55350,235,2025-11-17T10:51:15.357-06:00
58249,72873,68624,70423,65567,76914,79285,63153,58312,67986,60686,54261,122234,167895,170884,216623,192156,218679,231862,208891,181629,176581,152983,147172,60458,66788,73384,78389,73158,83778,85164,64595,54568,64763,60568,55317,236,2025-11-17T10:51:15.424-06:00
58259,72897,68642,70422,65594,76917,79279,63150,58319,67991,60682,54255,122232,167927,170870,216579,192138,218648,231870,208852,181613,176556,152920,147165,60455,66827,73415,78392,73153,83775,85168,64612,54577,64750,60565,55291,236,2025-11-17T10:51:15.424-06:00
58271,72903,68644,70426,65574,76926,79282,63141,58308,67959,60661,54246,122232,167929,170867,216562,192068,218570,231884,208848,181642,176536,152863,147141,60460,66840,73420,78400,73146,83789,85191,64601,54578,64730,60530,55275,237,2025-11-17T10:51:15.486-06:00
58270,72917,68664,70439,65589,76917,79291,63133,58328,67964,60649,54229,122253,167901,170873,216576,192125,218612,231848,208825,181643,176490,152867,147129,60469,66841,73443,78412,73155,83781,85168,64594,54573,64735,60517,55272,237,2025-11-17T10:51:15.486-06:00
58278,72924,68667,70430,65590,76934,79305,63152,58325,67951,60658,54232,122226,167917,170865,216509,192051,218588,231863,208924,181642,176494,152857,147125,60481,66854,73431,78411,73163,83772,85198,64624,54595,64721,60514,55266,238,2025-11-17T10:51:15.544-06:00
58286,72926,68682,70460,65601,76931,79299,63156,58328,67950,60638,54224,122228,167944,170886,216582,192086,218607,231856,208834,181708,176471,152865,147130,60489,66882,73452,78428,73175,83819,85204,64621,54600,64717,60521,55273,238,2025-11-17T10:51:15.544-06:00
58279,72935,68688,70455,65587,76939,79298,63162,58337,67945,60637,54224,122202,167926,170900,216531,192026,218591,231865,208831,181696,176486,152807,147093,60488,66884,73440,78425,73167,83805,85198,64633,54609,64724,60500,55257,239,2025-11-17T10:51:15.635-06:00
58290,72925,68692,70452,65600,76947,79329,63169,58343,67934,60638,54227,122230,167940,170894,216484,192056,218585,231819,208934,181745,176469,152799,147081,60500,66895,73446,78423,73177,83815,85219,64654,54613,64725,60499,55248,239,2025-11-17T10:51:15.635-06:00
58282,72953,68699,70468,65621,76959,79312,63172,58334,67945,60611,54222,122246,167964,170935,216531,192063,218566,231889,208872,181748,176453,152817,147101,60509,66911,73466,78434,73195,83822,85216,64649,54619,64730,60461,55248,240,2025-11-17T10:51:15.695-06:00
58301,72951,68682,70458,65612,76958,79314,63184,58347,67937,60638,54223,122233,167955,170931,216508,192097,218574,231899,208912,181794,176424,152840,147129,60513,66907,73466,78434,73204,83824,85226,64666,54631,64719,60502,55275,240,2025-11-17T10:51:15.695-06:00
58293,72962,68708,70468,65611,76955,79330,63200,58355,67929,60639,54238,122269,167929,170913,216502,192047,218603,231893,208878,181775,176456,152808,147105,60521,66936,73465,78457,73201,83848,85244,64681,54652,64729,60500,55273,241,2025-11-17T10:51:15.772-06:00
58304,72959,68707,70475,65628,76960,79329,63209,58368,67946,60630,54237,122263,167953,170946,216541,192080,218626,231871,208930,181875,176479,152773,147088,60544,66936,73488,78453,73232,83851,85270,64680,54661,64733,60513,55256,241,2025-11-17T10:51:15.772-06:00
58302,72976,68703,70478,65625,76971,79364,63233,58365,67928,60635,54239,122265,167961,170944,216552,192090,218592,231928,208992,181843,176428,152744,147081,60533,66936,73497,78476,73251,83862,85282,64697,54666,64724,60492,55282,242,2025-11-17T10:51:15.810-06:00
58296,72967,68720,70485,65650,76978,79353,63246,58375,67929,60633,54251,122282,167945,170948,216520,192147,218648,231945,209061,181893,176478,152768,147092,60530,66944,73509,78480,73272,83887,85306,64728,54681,64733,60507,55294,242,2025-11-17T10:51:15.810-06:00
58306,72970,68715,70491,65664,76985,79391,63260,58376,67921,60636,54247,122282,167979,170945,216528,192153,218680,231970,209045,181936,176457,152772,147098,60544,66934,73515,78505,73280,83887,85327,64726,54697,64751,60512,55301,243,2025-11-17T10:51:15.872-06:00
58320,72967,68721,70507,65663,76990,79382,63261,58388,67930,60636,54266,122278,167974,170954,216555,192170,218649,232014,209083,181917,176471,152772,147119,60552,66986,73526,78521,73301,83905,85354,64767,54706,64747,60524,55311,243,2025-11-17T10:51:15.872-06:00
58318,72985,68749,70532,65672,77001,79396,63298,58409,67931,60661,54280,122278,167993,170994,216572,192193,218697,231943,209135,181984,176488,152799,147102,60558,66981,73534,78537,73335,83927,85355,64784,54724,64782,60536,55333,244,2025-11-17T10:51:15.960-06:00
58339,73001,68763,70535,65688,77020,79413,63310,58425,67961,60664,54278,122316,168015,170991,216571,192178,218650,231990,209101,182017,176503,152784,147113,60577,67011,73568,78556,73336,83954,85381,64787,54749,64790,60553,55350,244,2025-11-17T10:51:15.960-06:00
58346,73026,68765,70545,65701,77023,79430,63327,58415,67952,60668,54268,122333,168039,171025,216622,192201,218656,232021,209119,182052,176492,152662,147045,60617,67015,73579,78558,73347,83936,85402,64813,54749,64794,60546,55353,245,2025-11-17T10:51:16.024-06:00
58348,73019,68758,70542,65709,77027,79445,63354,58432,68007,60736,54337,122321,168044,171036,216629,192233,218734,232060,209177,182008,176570,152862,147164,60606,67013,73574,78581,73374,83986,85427,64829,54733,64847,60645,55419,245,2025-11-17T10:51:16.024-06:00
58283,72918,68691,70515,65674,77017,79444,63355,58438,68072,60845,54403,122291,167962,170950,216619,192192,218717,232071,209133,181949,176702,153034,147271,60518,66913,73503,78548,73321,83911,85379,64802,54708,64903,60740,55498,246,2025-11-17T10:51:16.088-06:00
58185,72796,68590,70469,65627,77016,79436,63346,58421,68111,60866,54420,122187,167878,170880,216604,192101,218601,231982,209090,181827,176745,153049,147263,60386,66760,73399,78495,73267,83856,85313,64726,54661,64915,60785,55531,246,2025-11-17T10:51:16.088-06:00
58184,72783,68591,70466,65596,76980,79392,63294,58386,68101,60850,54410,122180,167840,170839,216567,192003,218530,231929,208927,181740,176677,153001,147235,60381,66751,73360,78456,73240,83828,85236,64662,54632,64877,60753,55497,247,2025-11-17T10:51:16.169-06:00
58241,72853,68620,70464,65608,76974,79359,63244,58368,68068,60815,54385,122232,167877,170833,216496,192029,218517,231876,208823,181691,176578,152955,147228,60450,66846,73424,78461,73235,83823,85232,64643,54620,64838,60729,55473,247,2025-11-17T10:51:16.169-06:00
58254,72886,68648,70484,65623,76960,79345,63215,58342,68054,60805,54385,122209,167916,170861,216484,191995,218455,231803,208723,181615,176552,152906,147163,60477,66898,73442,78454,73234,83829,85231,64635,54599,64818,60702,55460,248,2025-11-17T10:51:16.222-06:00
58266,72901,68646,70469,65605,76966,79332,63195,58336,68053,60813,54398,122197,167912,170866,216427,191945,218446,231793,208632,181566,176556,152898,147188,60472,66899,73439,78473,73220,83820,85237,64595,54593,64829,60719,55487,248,2025-11-17T10:51:16.222-06:00
58259,72891,68651,70464,65610,76957,79315,63177,58341,68051,60832,54409,122204,167886,170831,216380,191913,218406,231708,208550,181501,176514,152940,147182,60477,66893,73432,78465,73235,83824,85197,64572,54581,64806,60716,55489,249,2025-11-17T10:51:16.288-06:00
58274,72921,68652,70468,65598,76955,79333,63178,58328,68038,60822,54408,122213,167898,170802,216357,191905,218359,231694,208553,181497,176449,152917,147181,60494,66902,73426,78449,73219,83796,85201,64580,54573,64818,60713,55501,249,2025-11-17T10:51:16.288-06:00
58258,72904,68657,70464,65592,76955,79329,63174,58322,68037,60824,54416,122158,167875,170853,216339,191856,218365,231676,208511,181453,176455,152888,147192,60471,66898,73431,78476,73213,83807,85203,64569,54564,64803,60724,55524,250,2025-11-17T10:51:16.350-06:00
58250,72895,68644,70456,65584,76943,79346,63160,58324,68054,60852,54434,122171,167856,170832,216349,191860,218260,231724,208489,181456,176490,152952,147186,60468,66898,73431,78464,73211,83767,85196,64565,54552,64818,60743,55513,250,2025-11-17T10:51:16.350-06:00
58232,72866,68635,70458,65588,76936,79327,63144,58309,68049,60828,54418,122127,167851,170820,216336,191865,218296,231636,208412,181356,176421,152895,147177,60430,66874,73415,78444,73223,83789,85180,64545,54534,64807,60736,55504,251,2025-11-17T10:51:16.409-06:00
58244,72882,68652,70455,65576,76945,79316,63130,58308,68050,60821,54414,122112,167880,170835,216304,191848,218257,231614,208402,181355,176393,152855,147168,60447,66882,73431,78420,73215,83776,85175,64531,54541,64778,60708,55499,251,2025-11-17T10:51:16.409-06:00
58257,72920,68650,70457,65584,76932,79323,63126,58307,68032,60804,54404,122158,167872,170784,216320,191785,218200,231615,208395,181363,176378,152795,147159,60469,66914,73426,78440,73215,83784,85190,64542,54550,64763,60683,55489,252,2025-11-17T10:51:16.469-06:00
58272,72921,68667,70489,65595,76931,79307,63127,58303,68000,60791,54401,122169,167867,170816,216310,191796,218205,231613,208338,181339,176348,152785,147092,60475,66933,73448,78440,73228,83771,85193,64541,54538,64756,60681,55470,252,2025-11-17T10:51:16.469-06:00
58263,72924,68663,70486,65614,76946,79315,63131,58284,68003,60782,54394,122135,167850,170851,216270,191827,218178,231568,208322,181298,176294,152752,147082,60468,66931,73459,78466,73235,83791,85204,64538,54535,64730,60671,55469,253,2025-11-17T10:51:16.528-06:00
58264,72953,68689,70493,65613,76938,79301,63121,58274,67992,60772,54387,122136,167847,170852,216301,191818,218162,231564,208259,181273,176232,152759,147095,60485,66961,73459,78477,73239,83809,85205,64536,54540,64721,60654,55461,253,2025-11-17T10:51:16.528-06:00
58285,72955,68695,70483,65625,76937,79317,63116,58297,67988,60782,54392,122113,167871,170812,216273,191829,218107,231526,208258,181247,176256,152768,147033,60487,66970,73475,78483,73256,83787,85197,64521,54534,64721,60661,55466,254,2025-11-17T10:51:16.617-06:00
58288,72945,68701,70507,65621,76950,79325,63123,58277,67981,60769,54400,122162,167865,170849,216264,191791,218165,231556,208276,181212,176226,152727,147046,60502,66983,73491,78485,73256,83804,85219,64538,54533,64730,60664,55476,254,2025-11-17T10:51:16.617-06:00
58285,72973,68713,70504,65620,76957,79334,63124,58279,67983,60792,54416,122169,167912,170871,216228,191814,218137,231543,208240,181169,176198,152732,147086,60511,67003,73501,78496,73279,83795,85216,64542,54529,64722,60672,55502,255,2025-11-17T10:51:16.703-06:00
58300,72984,68720,70512,65618,76947,79335,63122,58293,68012,60783,54421,122142,167897,170839,216229,191774,218079,231551,208226,181183,176214,152748,147100,60512,66996,73508,78490,73291,83819,85228,64542,54547,64742,60689,55511,255,2025-11-17T10:51:16.703-06:00
58297,72977,68726,70505,65611,76960,79325,63127,58283,67987,60797,54416,122137,167876,170830,216286,191726,218082,231536,208181,181176,176204,152695,147062,60516,67001,73501,78507,73274,83820,85236,64528,54550,64748,60677,55495,0,2025-11-17T10:51:16.743-06:00
58310,72989,68721,70513,65620,76941,79335,63117,58292,68012,60787,54415,122146,167879,170811,216182,191702,218073,231499,208190,181151,176206,152699,147052,60520,67004,73524,78486,73253,83802,85219,64524,54545,64732,60679,55490,0,2025-11-17T10:51:16.743-06:00
58318,73012,68740,70503,65629,76971,79364,63134,58298,67998,60794,54414,122131,167860,170798,216174,191743,218074,231517,208171,181121,176232,152693,147053,60541,67020,73526,78491,73292,83833,85244,64542,54546,64743,60680,55491,1,2025-11-17T10:51:16.797-06:00
58333,73012,68751,70541,65640,76970,79341,63119,58305,67997,60792,54427,122149,167893,170854,216182,191724,218070,231476,208159,181109,176204,152697,147054,60563,67039,73542,78511,73291,83820,85238,64538,54553,64761,60683,55511,1,2025-11-17T10:51:16.797-06:00
58325,73010,68748,70543,65649,76967,79351,63142,58315,67995,60787,54429,122142,167864,170854,216192,191725,218048,231443,208110,181140,176178,152704,147023,60568,67055,73554,78525,73282,83836,85242,64541,54562,64752,60685,55496,2,2025-11-17T10:51:16.893-06:00
58349,73029,68766,70549,65654,76986,79347,63150,58319,68004,60796,54429,122160,167904,170854,216182,191734,218040,231482,208090,181097,176217,152697,147048,60579,67060,73560,78525,73297,83861,85250,64553,54576,64763,60687,55502,2,2025-11-17T10:51:16.893-06:00
58352,73056,68787,70565,65672,76996,79364,63149,58338,68005,60792,54399,122204,167923,170848,216196,191687,218085,231473,208101,181139,176187,152573,146993,60605,67074,73572,78534,73319,83859,85260,64570,54575,64777,60686,55497,3,2025-11-17T10:51:16.983-06:00
58354,73067,68783,70584,65672,77013,79370,63164,58341,68006,60803,54435,122178,167868,170881,216131,191691,218037,231464,208144,181172,176205,152668,147002,60606,67090,73590,78545,73325,83873,85271,64587,54606,64777,60694,55503,3,2025-11-17T10:51:16.983-06:00
58368,73067,68817,70574,65671,77004,79384,63177,58349,68012,60786,54425,122182,167939,170860,216160,191716,218104,231438,208166,181184,176140,152654,146987,60620,67103,73604,78569,73346,83890,85298,64601,54623,64783,60693,55500,4,2025-11-17T10:51:17.009-06:00
58370,73065,68802,70582,65678,77001,79383,63187,58350,68015,60788,54442,122190,167896,170884,216209,191709,218052,231473,208182,181174,176181,152639,146988,60604,67096,73604,78590,73350,83892,85311,64615,54632,64787,60682,55509,4,2025-11-17T10:51:17.009-06:00
58334,73017,68786,70587,65675,77030,79388,63213,58377,68054,60873,54474,122159,167877,170881,216165,191711,218041,231480,208185,181159,176280,152741,147099,60578,67075,73605,78576,73343,83879,85321,64620,54609,64838,60773,55574,5,2025-11-17T10:51:17.075-06:00
58250,72902,68698,70517,65659,77023,79398,63227,58389,68119,60933,54502,122082,167824,170809,216238,191681,218035,231507,208184,181123,176336,152852,147122,60459,66909,73486,78544,73308,83844,85294,64592,54578,64895,60844,55597,5,2025-11-17T10:51:17.075-06:00
58160,72777,68615,70491,65630,76995,79398,63230,58383,68141,60944,54493,121989,167770,170731,216198,191602,217985,231438,208129,181043,176326,152859,147078,60323,66772,73404,78497,73258,83818,85215,64548,54572,64880,60836,55580,6,2025-11-17T10:51:17.163-06:00
58187,72824,68643,70518,65632,76989,79333,63184,58358,68098,60898,54456,121991,167771,170742,216155,191584,218005,231344,208035,180991,176237,152752,147019,60353,66824,73432,78496,73241,83789,85177,64516,54561,64866,60780,55542,6,2025-11-17T10:51:17.163-06:00
58237,72882,68669,70515,65629,76993,79324,63171,58358,68072,60833,54406,122060,167812,170772,216110,191563,217914,231348,207948,181025,176211,152700,146988,60425,66916,73466,78493,73251,83807,85179,64503,54589,64830,60731,55489,7,2025-11-17T10:51:17.248-06:00
58241,72900,68692,70526,65633,76990,79344,63191,58348,68026,60808,54399,122079,167848,170793,216133,191564,217972,231407,207993,180936,176132,152637,146923,60452,66933,73491,78517,73285,83817,85206,64527,54571,64790,60701,55477,7,2025-11-17T10:51:17.248-06:00
58237,72905,68683,70528,65622,76995,79351,63174,58333,68047,60833,54400,122040,167821,170790,216083,191529,217900,231301,207985,180901,176090,152640,146945,60433,66917,73478,78503,73272,83836,85208,64504,54556,64793,60702,55466,8,2025-11-17T10:51:17.277-06:00
58238,72890,68676,70511,65628,76994,79329,63159,58319,68036,60810,54395,122020,167818,170774,216106,191444,217847,231267,207888,180835,176079,152610,146942,60426,66932,73491,78503,73256,83805,85207,64507,54537,64773,60693,55452,8,2025-11-17T10:51:17.277-06:00
58241,72904,68695,70531,65631,76981,79321,63125,58312,68028,60795,54377,122044,167812,170755,216021,191411,217839,231203,207861,180723,176054,152544,146884,60433,66946,73494,78505,73256,83800,85170,64490,54518,64746,60677,55446,9,2025-11-17T10:51:17.338-06:00
58222,72905,68708,70523,65616,76964,79311,63123,58303,68012,60800,54381,122009,167825,170784,216028,191412,217768,231224,207789,180696,176037,152570,146886,60432,66953,73491,78509,73238,83794,85177,64475,54508,64743,60680,55451,9,2025-11-17T10:51:17.338-06:00
58207,72899,68695,70513,65597,76952,79303,63103,58298,68025,60798,54386,121961,167772,170762,215966,191369,217701,231235,207728,180664,176025,152553,146881,60399,66929,73483,78496,73225,83760,85155,64473,54498,64737,60690,55433,10,2025-11-17T10:51:17.398-06:00
58211,72887,68689,70525,65594,76964,79281,63094,58307,68028,60810,54364,121970,167772,170734,215959,191285,217698,231137,207675,180666,175962,152569,146871,60404,66930,73486,78483,73229,83761,85140,64446,54507,64718,60679,55431,10,2025-11-17T10:51:17.398-06:00
58230,72915,68683,70520,65612,76959,79281,63104,58311,68025,60781,54361,121955,167772,170717,215920,191285,217694,231130,207687,180658,175967,152520,146854,60430,66940,73473,78508,73216,83795,85153,64449,54512,64734,60647,55416,11,2025-11-17T10:51:17.458-06:00
58248,72934,68719,70543,65612,76985,79296,63086,58323,68009,60760,54347,122025,167808,170728,215908,191256,217690,231141,207678,180684,175936,152481,146812,60447,66973,73506,78489,73227,83772,85162,64452,54519,64737,60637,55386,11,2025-11-17T10:51:17.458-06:00
58250,72948,68723,70543,65618,76964,79293,63089,58314,68006,60782,54348,121999,167828,170753,215835,191229,217639,231088,207674,180659,175920,152482,146833,60464,67016,73536,78497,73222,83777,85168,64441,54532,64731,60634,55393,12,2025-11-17T10:51:17.547-06:00
58272,72985,68741,70544,65629,76977,79295,63103,58345,68015,60772,54336,122008,167824,170772,215838,191223,217641,231083,207673,180661,175909,152435,146818,60487,67027,73548,78507,73225,83794,85178,64459,54536,64735,60622,55389,12,2025-11-17T10:51:17.547-06:00
58286,72995,68779,70568,65645,77002,79318,63121,58353,68002,60752,54342,122036,167789,170746,215843,191208,217627,231092,207721,180673,175893,152416,146808,60512,67052,73567,78489,73238,83821,85183,64480,54544,64724,60615,55375,13,2025-11-17T10:51:17.639-06:00
58291,73005,68782,70563,65651,77006,79300,63128,58371,68007,60763,54337,122023,167798,170750,215794,191216,217642,231095,207704,180681,175922,152419,146764,60523,67066,73569,78505,73220,83809,85177,64491,54550,64744,60628,55385,13,2025-11-17T10:51:17.639-06:00
58299,72990,68789,70556,65651,77001,79329,63143,58373,67999,60750,54338,122043,167790,170725,215777,191191,217637,231126,207751,180682,175888,152383,146778,60516,67065,73564,78511,73242,83815,85204,64504,54557,64735,60613,55375,14,2025-11-17T10:51:17.669-06:00
58294,73010,68786,70571,65648,77000,79334,63162,58382,68005,60749,54321,122028,167783,170759,215750,191192,217619,231149,207807,180694,175870,152395,146758,60520,67078,73587,78517,73257,83830,85222,64512,54565,64756,60616,55367,14,2025-11-17T10:51:17.669-06:00
58280,73022,68790,70578,65648,77011,79331,63160,58386,67999,60742,54321,122047,167832,170734,215758,191143,217590,231109,207807,180716,175851,152372,146759,60530,67102,73592,78518,73237,83852,85208,64515,54576,64751,60611,55367,15,2025-11-17T10:51:17.727-06:00
58303,73025,68797,70591,65665,77028,79343,63175,58391,68001,60730,54308,122046,167800,170773,215758,191198,217626,231081,207896,180710,175838,152353,146727,60544,67097,73596,78546,73267,83863,85240,64545,54606,64757,60588,55343,15,2025-11-17T10:51:17.727-06:00
58294,73023,68806,70589,65688,77038,79339,63182,58419,67990,60714,54298,122041,167800,170757,215758,191171,217622,231165,207901,180727,175826,152315,146705,60544,67117,73617,78561,73276,83884,85261,64555,54604,64748,60580,55321,16,2025-11-17T10:51:17.796-06:00
58307,73037,68829,70608,65692,77042,79355,63209,58422,67995,60731,54305,122072,167828,170797,215815,191194,217633,231128,207931,180784,175851,152315,146720,60562,67130,73628,78575,73283,83899,85253,64582,54624,64762,60592,55329,16,2025-11-17T10:51:17.796-06:00
58322,73059,68839,70606,65716,77073,79357,63228,58436,68001,60700,54298,122095,167830,170803,215773,191164,217664,231147,207967,180801,175862,152295,146710,60577,67142,73663,78575,73313,83896,85279,64586,54637,64782,60588,55324,17,2025-11-17T10:51:17.879-06:00
58314,73070,68851,70634,65724,77056,79380,63242,58443,67973,60699,54292,122089,167856,170798,215752,191210,217648,231197,208065,180793,175840,152282,146657,60590,67152,73673,78595,73317,83926,85308,64617,54663,64791,60573,55319,17,2025-11-17T10:51:17.879-06:00
58333,73053,68850,70653,65743,77089,79406,63268,58440,67987,60693,54290,122100,167878,170841,215772,191225,217639,231246,208106,180782,175796,152264,146663,60578,67177,73678,78606,73352,83955,85330,64645,54656,64767,60563,55329,18,2025-11-17T10:51:17.938-06:00
58317,73076,68871,70650,65756,77085,79398,63267,58456,67997,60711,54311,122114,167877,170851,215808,191203,217666,231289,208160,180785,175807,152258,146696,60604,67188,73716,78632,73355,83959,85360,64655,54674,64758,60578,55332,18,2025-11-17T10:51:17.938-06:00
58330,73091,68897,70671,65754,77109,79422,63295,58492,68007,60721,54318,122126,167899,170839,215819,191244,217648,231269,208203,180830,175839,152288,146683,60612,67206,73709,78633,73378,83978,85377,64676,54696,64792,60599,55354,19,2025-11-17T10:51:18.004-06:00
58356,73109,68890,70665,65782,77106,79442,63311,58481,68001,60734,54331,122142,167917,170838,215828,191218,217684,231338,208323,180888,175835,152321,146732,60637,67219,73721,78667,73397,84007,85390,64707,54713,64817,60608,55390,19,2025-11-17T10:51:18.004-06:00
58351,73126,68891,70676,65782,77113,79469,63333,58495,68025,60751,54361,122157,167935,170880,215787,191229,217728,231340,208310,180903,175850,152326,146711,60655,67234,73733,78671,73427,84027,85420,64695,54710,64842,60650,55415,20,2025-11-17T10:51:18.086-06:00
58321,73077,68872,70676,65766,77138,79482,63358,58524,68107,60860,54412,122092,167887,170820,215912,191275,217693,231394,208349,180879,175987,152484,146821,60594,67187,73711,78699,73418,84011,85427,64713,54700,64904,60748,55490,20,2025-11-17T10:51:18.086-06:00
58240,72943,68800,70655,65741,77143,79471,63352,58528,68178,60940,54470,122028,167800,170763,215821,191183,217654,231359,208301,180826,176119,152605,146885,60479,67050,73612,78639,73357,83952,85364,64656,54670,64939,60845,55550,21,2025-11-17T10:51:18.147-06:00
58223,72911,68774,70617,65713,77107,79443,63315,58504,68195,60951,54477,122007,167752,170691,215791,191078,217636,231237,208208,180677,176074,152565,146884,60448,66985,73559,78606,73322,83913,85271,64591,54627,64937,60837,55554,21,2025-11-17T10:51:18.147-06:00
58266,72963,68791,70634,65720,77087,79406,63282,58464,68145,60873,54439,122052,167787,170701,215728,191034,217604,231192,208109,180628,175971,152481,146799,60497,67053,73587,78584,73302,83918,85271,64553,54601,64889,60777,55478,22,2025-11-17T10:51:18.210-06:00
58294,73013,68800,70627,65707,77095,79391,63233,58439,68113,60873,54424,122045,167802,170690,215704,190961,217529,231156,207995,180548,175913,152439,146782,60533,67097,73604,78579,73298,83925,85250,64537,54584,64857,60743,55485,22,2025-11-17T10:51:18.210-06:00
58284,73008,68797,70643,65702,77077,79362,63194,58417,68095,60867,54413,122022,167782,170713,215710,190957,217482,231113,207924,180472,175842,152405,146761,60542,67104,73610,78578,73300,83896,85240,64501,54560,64844,60748,55484,23,2025-11-17T10:51:18.274-06:00
58276,73010,68799,70624,65689,77086,79356,63181,58420,68126,60887,54429,122010,167766,170702,215679,190890,217388,231074,207895,180511,175867,152444,146780,60529,67108,73612,78586,73288,83882,85230,64501,54564,64842,60757,55498,23,2025-11-17T10:51:18.274-06:00
58286,73009,68811,70624,65685,77069,79358,63163,58415,68106,60857,54419,122000,167726,170671,215620,190871,217361,231018,207862,180489,175827,152377,146739,60535,67111,73609,78565,73289,83871,85219,64479,54559,64831,60739,55481,24,2025-11-17T10:51:18.355-06:00
58275,73004,68809,70610,65687,77039,79345,63174,58408,68113,60883,54420,121985,167753,170627,215564,190840,217308,231027,207799,180448,175814,152394,146779,60528,67115,73594,78551,73271,83862,85215,64464,54542,64820,60751,55499,24,2025-11-17T10:51:18.355-06:00
58248,72996,68808,70608,65682,77040,79345,63164,58410,68119,60880,54432,121941,167689,170607,215573,190792,217284,231003,207820,180451,175801,152406,146743,60495,67079,73605,78563,73274,83870,85214,64460,54532,64817,60768,55497,25,2025-11-17T10:51:18.388-06:00
58233,72975,68786,70616,65686,77069,79352,63155,58407,68113,60906,54451,121919,167691,170635,215604,190769,217275,230988,207814,180421,175803,152419,146751,60470,67071,73613,78573,73299,83853,85199,64434,54525,64826,60777,55523,25,2025-11-17T10:51:18.388-06:00
58238,72987,68801,70606,65671,77038,79330,63139,58390,68099,60888,54442,121934,167677,170605,215521,190770,217181,230946,207744,180458,175744,152369,146745,60484,67074,73593,78564,73274,83829,85199,64433,54529,64814,60767,55513,26,2025-11-17T10:51:18.479-06:00
58260,73007,68826,70605,65689,77053,79339,63141,58384,68085,60878,54443,121918,167697,170594,215524,190758,217198,230907,207791,180441,175719,152339,146734,60488,67093,73616,78559,73277,83855,85183,64430,54513,64806,60741,55509,26,2025-11-17T10:51:18.479-06:00
58255,73018,68795,70621,65681,77032,79352,63137,58387,68072,60801,54428,121912,167653,170587,215526,190770,217150,230932,207772,180406,175704,152302,146682,60500,67105,73636,78583,73284,83845,85198,64439,54522,64788,60694,55475,27,2025-11-17T10:51:18.568-06:00
58245,73023,68832,70616,65689,77032,79336,63138,58370,68053,60823,54415,121896,167705,170591,215503,190760,217118,230933,207771,180440,175692,152243,146662,60484,67111,73624,78577,73311,83863,85224,64440,54519,64750,60703,55484,27,2025-11-17T10:51:18.568-06:00
58242,73004,68828,70614,65697,77030,79348,63135,58365,68045,60826,54413,121857,167673,170583,215511,190735,217088,230913,207775,180402,175621,152193,146641,60458,67098,73631,78603,73306,83864,85232,64447,54512,64749,60687,55471,28,2025-11-17T10:51:18.628-06:00
58250,73013,68813,70620,65698,77037,79342,63128,58353,68038,60820,54417,121828,167652,170600,215520,190764,217142,230936,207774,180379,175605,152221,146639,60474,67105,73630,78604,73326,83846,85221,64453,54516,64747,60694,55488,28,2025-11-17T10:51:18.628-06:00
58240,73025,68830,70642,65691,77035,79358,63123,58361,68046,60839,54431,121869,167648,170569,215448,190700,217076,230905,207740,180363,175595,152223,146650,60482,67122,73625,78607,73316,83855,85236,64440,54504,64743,60717,55487,29,2025-11-17T10:51:18.694-06:00
58247,73014,68820,70638,65700,77039,79351,63124,58370,68062,60834,54437,121857,167633,170516,215474,190702,217040,230978,207679,180403,175624,152201,146641,60474,67106,73620,78628,73324,83851,85240,64435,54512,64749,60707,55520,29,2025-11-17T10:51:18.694-06:00
58252,73023,68824,70636,65705,77034,79374,63143,58355,68058,60836,54445,121821,167670,170576,215491,190709,217019,230909,207725,180380,175591,152222,146649,60484,67115,73655,78646,73345,83853,85252,64451,54517,64767,60731,55526,30,2025-11-17T10:51:18.717-06:00
58245,73029,68844,70640,65697,77042,79353,63136,58359,68051,60847,54450,121837,167647,170582,215485,190695,216989,230900,207660,180376,175567,152225,146652,60481,67121,73650,78623,73336,83870,85232,64449,54500,64753,60739,55527,30,2025-11-17T10:51:18.717-06:00
58251,73040,68855,70645,65703,77038,79354,63136,58366,68058,60866,54455,121858,167601,170515,215432,190651,216992,230815,207631,180409,175610,152204,146617,60489,67132,73646,78623,73330,83847,85226,64427,54506,64770,60739,55535,31,2025-11-17T10:51:18.811-06:00
58282,73054,68853,70636,65704,77049,79363,63135,58370,68071,60868,54470,121873,167631,170531,215384,190642,216963,230862,207635,180413,175605,152229,146645,60519,67155,73655,78632,73337,83873,85264,64438,54508,64756,60731,55531,31,2025-11-17T10:51:18.811-06:00
58275,73069,68856,70657,65721,77062,79375,63154,58363,68057,60845,54456,121893,167645,170515,215434,190672,216944,230913,207687,180405,175572,152154,146634,60531,67158,73674,78643,73368,83887,85263,64459,54516,64770,60713,55527,32,2025-11-17T10:51:18.867-06:00
58292,73079,68873,70671,65733,77068,79392,63153,58384,68070,60862,54466,121888,167646,170525,215385,190638,216922,230846,207712,180422,175595,152201,146630,60548,67170,73690,78657,73357,83892,85272,64457,54526,64781,60740,55544,32,2025-11-17T10:51:18.867-06:00
58290,73098,68881,70681,65742,77064,79403,63158,58403,68070,60857,54475,121906,167637,170523,215382,190650,216934,230884,207676,180407,175594,152171,146613,60570,67202,73692,78639,73378,83898,85283,64464,54536,64775,60740,55547,33,2025-11-17T10:51:18.935-06:00
58299,73094,68904,70677,65752,77085,79404,63172,58416,68069,60862,54472,121897,167624,170535,215367,190640,216953,230883,207699,180474,175592,152187,146627,60568,67211,73705,78660,73396,83923,85291,64487,54557,64780,60737,55546,33,2025-11-17T10:51:18.935-06:00
58316,73103,68900,70697,65761,77084,79398,63194,58417,68075,60852,54485,121889,167645,170511,215356,190636,216907,230865,207727,180463,175601,152127,146616,60576,67208,73723,78672,73412,83913,85309,64500,54556,64783,60747,55557,34,2025-11-17T10:51:19.016-06:00
58333,73142,68925,70703,65781,77098,79408,63197,58425,68066,60862,54483,121937,167616,170527,215395,190671,216913,230905,207726,180513,175599,152168,146614,60608,67237,73744,78661,73410,83946,85315,64510,54565,64799,60750,55556,34,2025-11-17T10:51:19.016-06:00
58336,73126,68918,70723,65763,77107,79430,63215,58441,68086,60870,54485,121903,167639,170527,215379,190628,216945,230863,207761,180549,175607,152145,146596,60624,67243,73736,78689,73424,83953,85323,64519,54593,64808,60748,55558,35,2025-11-17T10:51:19.047-06:00
58305,73095,68905,70698,65771,77117,79448,63235,58450,68125,60948,54532,121871,167628,170501,215394,190597,216923,230895,207801,180509,175717,152253,146679,60587,67205,73713,78708,73421,83926,85341,64541,54579,64844,60822,55627,35,2025-11-17T10:51:19.047-06:00
58224,72973,68809,70679,65730,77096,79452,63241,58450,68186,61025,54595,121785,167509,170426,215359,190567,216882,230905,207779,180475,175792,152390,146727,60433,67055,73620,78671,73381,83894,85305,64493,54535,64915,60926,55688,36,2025-11-17T10:51:19.138-06:00
58144,72885,68755,70635,65710,77063,79415,63236,58443,68214,61031,54581,121724,167471,170370,215400,190498,216912,230892,207687,180421,175826,152406,146730,60349,66926,73534,78627,73339,83852,85256,64436,54516,64906,60927,55674,36,2025-11-17T10:51:19.138-06:00
58162,72895,68762,70634,65701,77065,79413,63207,58416,68178,60997,54549,121729,167481,170344,215361,190428,216809,230821,207654,180341,175717,152338,146711,60360,66957,73554,78609,73311,83848,85214,64415,54502,64874,60905,55647,37,2025-11-17T10:51:19.254-06:00
58202,72954,68794,70646,65699,77058,79372,63193,58420,68179,60981,54541,121790,167560,170323,215330,190403,216801,230735,207551,180367,175701,152296,146645,60433,67042,73582,78623,73321,83830,85211,64406,54511,64850,60849,55623,37,2025-11-17T10:51:19.254-06:00
58212,72985,68792,70642,65703,77049,79377,63161,58390,68156,60955,54528,121775,167508,170345,215233,190367,216714,230703,207530,180311,175639,152216,146614,60431,67057,73589,78603,73328,83828,85197,64397,54492,64834,60829,55611,38,2025-11-17T10:51:19.283-06:00
58196,72953,68772,70623,65707,77049,79369,63143,58395,68150,60966,54524,121711,167499,170344,215192,190314,216689,230681,207425,180185,175631,152241,146593,60393,67029,73587,78615,73307,83816,85212,64376,54475,64819,60852,55613,38,2025-11-17T10:51:19.283-06:00
58178,72950,68772,70613,65684,77041,79354,63136,58381,68138,60945,54516,121700,167463,170287,215190,190258,216623,230655,207391,180159,175601,152213,146588,60384,67015,73562,78588,73300,83815,85181,64351,54455,64796,60834,55594,39,2025-11-17T10:51:19.320-06:00
58188,72961,68815,70640,65691,77029,79345,63104,58370,68120,60929,54513,121661,167491,170328,215188,190234,216563,230565,207318,180157,175542,152218,146608,60408,67045,73583,78591,73293,83811,85178,64343,54454,64787,60818,55590,39,2025-11-17T10:51:19.320-06:00
58190,72970,68792,70614,65688,77040,79315,63103,58389,68124,60925,54506,121701,167466,170293,215146,190227,216580,230556,207264,180179,175548,152183,146576,60408,67049,73581,78595,73298,83816,85186,64341,54470,64807,60810,55581,40,2025-11-17T10:51:19.410-06:00
58188,72967,68815,70638,65700,77045,79366,63112,58381,68141,60924,54502,121664,167451,170314,215114,190138,216533,230567,207348,180160,175523,152191,146541,60400,67043,73587,78592,73269,83806,85183,64344,54452,64805,60811,55569,40,2025-11-17T10:51:19.410-06:00
58178,72956,68806,70632,65684,77039,79354,63098,58375,68138,60875,54473,121655,167414,170275,215085,190148,216557,230585,207297,180115,175523,152143,146527,60400,67029,73581,78592,73273,83791,85153,64335,54454,64781,60779,55503,41,2025-11-17T10:51:19.492-06:00
58195,72957,68798,70620,65684,77032,79317,63090,58374,68115,60890,54441,121667,167447,170293,215058,190105,216498,230523,207230,180142,175473,152084,146471,60400,67042,73588,78574,73265,83796,85140,64321,54438,64777,60769,55510,41,2025-11-17T10:51:19.492-06:00
58169,72932,68759,70601,65662,77018,79293,63075,58366,68070,60868,54407,121648,167437,170288,215077,190053,216473,230488,207251,180110,175383,152023,146394,60402,67014,73573,78590,73249,83797,85143,64305,54437,64756,60724,55452,42,2025-11-17T10:51:19.527-06:00
58158,72904,68744,70581,65651,77012,79293,63063,58366,68076,60854,54380,121627,167423,170307,215083,190003,216435,230443,207208,180119,175362,151990,146372,60372,66987,73577,78569,73267,83808,85111,64307,54450,64733,60707,55417,42,2025-11-17T10:51:19.527-06:00
58138,72912,68750,70585,65667,77002,79289,63046,58372,68065,60845,54357,121640,167445,170295,215089,189982,216415,230395,207248,180180,175344,151963,146326,60363,66987,73579,78586,73271,83796,85128,64302,54464,64724,60677,55411,43,2025-11-17T10:51:19.615-06:00
58135,72906,68728,70582,65664,77015,79284,63067,58373,68071,60818,54359,121607,167417,170281,215101,189982,216456,230451,207286,180197,175353,151952,146300,60368,66991,73595,78577,73276,83809,85141,64326,54463,64712,60674,55403,43,2025-11-17T10:51:19.615-06:00
58106,72928,68758,70589,65674,77039,79291,63071,58392,68054,60815,54342,121635,167430,170290,215053,189959,216404,230421,207303,180190,175333,151911,146286,60393,67000,73588,78611,73284,83820,85134,64351,54489,64738,60670,55389,44,2025-11-17T10:51:19.649-06:00
58091,72924,68755,70607,65676,77026,79297,63086,58397,68063,60806,54338,121576,167426,170239,215073,189985,216427,230488,207399,180226,175307,151906,146274,60372,67013,73600,78615,73291,83821,85167,64371,54493,64715,60667,55359,44,2025-11-17T10:51:19.649-06:00
58089,72924,68780,70602,65715,77052,79328,63114,58426,68056,60803,54332,121625,167424,170284,215074,189971,216409,230434,207469,180286,175332,151878,146259,60391,67018,73623,78623,73307,83837,85176,64367,54512,64729,60647,55362,45,2025-11-17T10:51:19.742-06:00
58093,72957,68785,70624,65717,77069,79329,63146,58433,68037,60776,54314,121638,167453,170306,215014,189979,216433,230519,207537,180323,175333,151848,146265,60386,67047,73629,78614,73313,83864,85224,64396,54534,64733,60640,55350,45,2025-11-17T10:51:19.742-06:00
58097,72977,68807,70643,65724,77081,79361,63170,58443,68057,60738,54300,121653,167484,170301,215037,189999,216390,230543,207590,180311,175301,151836,146225,60402,67065,73655,78637,73331,83883,85222,64436,54553,64738,60580,55340,46,2025-11-17T10:51:19.798-06:00
